3997.51747,0.00172
3995.47687,0.00187
3993.43628,0.00207
3991.39569,0.00209
3989.35510,0.00199
3987.31451,0.00188
3985.27392,0.00176
3983.23333,0.00164
3981.19274,0.00161
3979.15215,0.00173
3977.11156,0.00190
3975.07097,0.00205
3973.03037,0.00213
3970.98978,0.00214
3968.94919,0.00208
3966.90860,0.00198
3964.86801,0.00193
3962.82742,0.00193
3960.78683,0.00195
3958.74624,0.00197
3956.70565,0.00204
3954.66506,0.00211
3952.62447,0.00210
3950.58388,0.00215
3948.54328,0.00227
3946.50269,0.00232
3944.46210,0.00224
3942.42151,0.00210
3940.38092,0.00198
3938.34033,0.00196
3936.29974,0.00205
3934.25915,0.00209
3932.21856,0.00198
3930.17797,0.00186
3928.13738,0.00188
3926.09679,0.00198
3924.05619,0.00207
3922.01560,0.00222
3919.97501,0.00246
3917.93442,0.00257
3915.89383,0.00240
3913.85324,0.00216
3911.81265,0.00210
3909.77206,0.00216
3907.73147,0.00228
3905.69088,0.00252
3903.65029,0.00276
3901.60970,0.00288
3899.56910,0.00276
3897.52851,0.00244
3895.48792,0.00227
3893.44733,0.00227
3891.40674,0.00213
3889.36615,0.00199
3887.32556,0.00217
3885.28497,0.00246
3883.24438,0.00256
3881.20379,0.00259
3879.16320,0.00252
3877.12261,0.00229
3875.08201,0.00219
3873.04142,0.00234
3871.00083,0.00262
3868.96024,0.00270
3866.91965,0.00255
3864.87906,0.00243
3862.83847,0.00228
3860.79788,0.00198
3858.75729,0.00177
3856.71670,0.00182
3854.67611,0.00218
3852.63552,0.00241
3850.59492,0.00220
3848.55433,0.00202
3846.51374,0.00205
3844.47315,0.00223
3842.43256,0.00241
3840.39197,0.00242
3838.35138,0.00232
3836.31079,0.00231
3834.27020,0.00238
3832.22961,0.00227
3830.18902,0.00195
3828.14842,0.00177
3826.10783,0.00196
3824.06724,0.00232
3822.02665,0.00264
3819.98606,0.00265
3817.94547,0.00243
3815.90488,0.00229
3813.86429,0.00217
3811.82370,0.00205
3809.78311,0.00205
3807.74252,0.00221
3805.70193,0.00233
3803.66133,0.00231
3801.62074,0.00217
3799.58015,0.00196
3797.53956,0.00196
3795.49897,0.00220
3793.45838,0.00237
3791.41779,0.00249
3789.37720,0.00254
3787.33661,0.00250
3785.29602,0.00238
3783.25543,0.00220
3781.21484,0.00216
3779.17424,0.00218
3777.13365,0.00205
3775.09306,0.00192
3773.05247,0.00189
3771.01188,0.00196
3768.97129,0.00217
3766.93070,0.00241
3764.89011,0.00238
3762.84952,0.00216
3760.80893,0.00210
3758.76834,0.00216
3756.72775,0.00209
3754.68715,0.00194
3752.64656,0.00207
3750.60597,0.00252
3748.56538,0.00260
3746.52479,0.00251
3744.48420,0.00263
3742.44361,0.00255
3740.40302,0.00246
3738.36243,0.00282
3736.32184,0.00340
3734.28125,0.00339
3732.24066,0.00276
3730.20006,0.00217
3728.15947,0.00190
3726.11888,0.00206
3724.07829,0.00248
3722.03770,0.00276
3719.99711,0.00262
3717.95652,0.00225
3715.91593,0.00210
3713.87534,0.00229
3711.83475,0.00253
3709.79416,0.00246
3707.75357,0.00233
3705.71297,0.00232
3703.67238,0.00235
3701.63179,0.00238
3699.59120,0.00232
3697.55061,0.00217
3695.51002,0.00217
3693.46943,0.00233
3691.42884,0.00247
3689.38825,0.00254
3687.34766,0.00239
3685.30707,0.00206
3683.26647,0.00189
3681.22588,0.00197
3679.18529,0.00216
3677.14470,0.00240
3675.10411,0.00265
3673.06352,0.00264
3671.02293,0.00245
3668.98234,0.00222
3666.94175,0.00214
3664.90116,0.00223
3662.86057,0.00231
3660.81998,0.00221
3658.77938,0.00215
3656.73879,0.00225
3654.69820,0.00230
3652.65761,0.00238
3650.61702,0.00273
3648.57643,0.00298
3646.53584,0.00274
3644.49525,0.00253
3642.45466,0.00258
3640.41407,0.00263
3638.37348,0.00245
3636.33289,0.00217
3634.29229,0.00208
3632.25170,0.00222
3630.21111,0.00248
3628.17052,0.00260
3626.12993,0.00237
3624.08934,0.00217
3622.04875,0.00220
3620.00816,0.00226
3617.96757,0.00225
3615.92698,0.00232
3613.88639,0.00240
3611.84580,0.00241
3609.80520,0.00247
3607.76461,0.00260
3605.72402,0.00260
3603.68343,0.00243
3601.64284,0.00226
3599.60225,0.00218
3597.56166,0.00229
3595.52107,0.00260
3593.48048,0.00278
3591.43989,0.00271
3589.39930,0.00268
3587.35871,0.00267
3585.31811,0.00251
3583.27752,0.00244
3581.23693,0.00255
3579.19634,0.00262
3577.15575,0.00256
3575.11516,0.00253
3573.07457,0.00258
3571.03398,0.00253
3568.99339,0.00245
3566.95280,0.00237
3564.91221,0.00216
3562.87162,0.00205
3560.83102,0.00211
3558.79043,0.00227
3556.74984,0.00244
3554.70925,0.00250
3552.66866,0.00243
3550.62807,0.00229
3548.58748,0.00215
3546.54689,0.00209
3544.50630,0.00205
3542.46571,0.00207
3540.42512,0.00227
3538.38452,0.00254
3536.34393,0.00269
3534.30334,0.00275
3532.26275,0.00280
3530.22216,0.00282
3528.18157,0.00280
3526.14098,0.00275
3524.10039,0.00266
3522.05980,0.00259
3520.01921,0.00269
3517.97862,0.00280
3515.93803,0.00271
3513.89743,0.00251
3511.85684,0.00237
3509.81625,0.00237
3507.77566,0.00243
3505.73507,0.00245
3503.69448,0.00257
3501.65389,0.00275
3499.61330,0.00286
3497.57271,0.00292
3495.53212,0.00280
3493.49153,0.00258
3491.45094,0.00251
3489.41034,0.00252
3487.36975,0.00249
3485.32916,0.00245
3483.28857,0.00242
3481.24798,0.00248
3479.20739,0.00260
3477.16680,0.00264
3475.12621,0.00264
3473.08562,0.00260
3471.04503,0.00252
3469.00444,0.00246
3466.96385,0.00252
3464.92325,0.00262
3462.88266,0.00252
3460.84207,0.00240
3458.80148,0.00244
3456.76089,0.00234
3454.72030,0.00223
3452.67971,0.00238
3450.63912,0.00246
3448.59853,0.00234
3446.55794,0.00228
3444.51735,0.00235
3442.47676,0.00248
3440.43616,0.00259
3438.39557,0.00265
3436.35498,0.00258
3434.31439,0.00237
3432.27380,0.00220
3430.23321,0.00225
3428.19262,0.00233
3426.15203,0.00224
3424.11144,0.00223
3422.07085,0.00245
3420.03026,0.00264
3417.98967,0.00261
3415.94907,0.00250
3413.90848,0.00261
3411.86789,0.00298
3409.82730,0.00321
3407.78671,0.00306
3405.74612,0.00284
3403.70553,0.00286
3401.66494,0.00293
3399.62435,0.00291
3397.58376,0.00293
3395.54317,0.00309
3393.50257,0.00321
3391.46198,0.00315
3389.42139,0.00300
3387.38080,0.00288
3385.34021,0.00280
3383.29962,0.00277
3381.25903,0.00276
3379.21844,0.00263
3377.17785,0.00252
3375.13726,0.00257
3373.09667,0.00261
3371.05608,0.00252
3369.01548,0.00250
3366.97489,0.00252
3364.93430,0.00251
3362.89371,0.00269
3360.85312,0.00295
3358.81253,0.00301
3356.77194,0.00295
3354.73135,0.00293
3352.69076,0.00292
3350.65017,0.00285
3348.60958,0.00276
3346.56899,0.00274
3344.52839,0.00277
3342.48780,0.00279
3340.44721,0.00279
3338.40662,0.00271
3336.36603,0.00260
3334.32544,0.00257
3332.28485,0.00275
3330.24426,0.00303
3328.20367,0.00313
3326.16308,0.00297
3324.12249,0.00265
3322.08190,0.00245
3320.04130,0.00247
3318.00071,0.00252
3315.96012,0.00251
3313.91953,0.00252
3311.87894,0.00265
3309.83835,0.00276
3307.79776,0.00273
3305.75717,0.00270
3303.71658,0.00276
3301.67599,0.00285
3299.63540,0.00304
3297.59481,0.00325
3295.55421,0.00323
3293.51362,0.00305
3291.47303,0.00296
3289.43244,0.00302
3287.39185,0.00311
3285.35126,0.00303
3283.31067,0.00283
3281.27008,0.00267
3279.22949,0.00262
3277.18890,0.00276
3275.14831,0.00303
3273.10772,0.00321
3271.06712,0.00317
3269.02653,0.00295
3266.98594,0.00279
3264.94535,0.00273
3262.90476,0.00257
3260.86417,0.00235
3258.82358,0.00225
3256.78299,0.00229
3254.74240,0.00241
3252.70181,0.00253
3250.66122,0.00261
3248.62062,0.00267
3246.58003,0.00275
3244.53944,0.00281
3242.49885,0.00277
3240.45826,0.00264
3238.41767,0.00260
3236.37708,0.00266
3234.33649,0.00277
3232.29590,0.00287
3230.25531,0.00283
3228.21472,0.00275
3226.17413,0.00278
3224.13353,0.00283
3222.09294,0.00285
3220.05235,0.00289
3218.01176,0.00290
3215.97117,0.00289
3213.93058,0.00298
3211.88999,0.00308
3209.84940,0.00310
3207.80881,0.00299
3205.76822,0.00287
3203.72763,0.00289
3201.68704,0.00297
3199.64644,0.00301
3197.60585,0.00287
3195.56526,0.00267
3193.52467,0.00266
3191.48408,0.00276
3189.44349,0.00282
3187.40290,0.00288
3185.36231,0.00293
3183.32172,0.00299
3181.28113,0.00299
3179.24054,0.00284
3177.19995,0.00271
3175.15935,0.00274
3173.11876,0.00282
3171.07817,0.00298
3169.03758,0.00319
3166.99699,0.00326
3164.95640,0.00311
3162.91581,0.00291
3160.87522,0.00286
3158.83463,0.00292
3156.79404,0.00291
3154.75345,0.00283
3152.71286,0.00280
3150.67226,0.00273
3148.63167,0.00259
3146.59108,0.00259
3144.55049,0.00275
3142.50990,0.00283
3140.46931,0.00282
3138.42872,0.00285
3136.38813,0.00290
3134.34754,0.00294
3132.30695,0.00301
3130.26636,0.00306
3128.22577,0.00301
3126.18517,0.00291
3124.14458,0.00286
3122.10399,0.00278
3120.06340,0.00269
3118.02281,0.00268
3115.98222,0.00275
3113.94163,0.00278
3111.90104,0.00276
3109.86045,0.00276
3107.81986,0.00280
3105.77927,0.00278
3103.73868,0.00264
3101.69808,0.00257
3099.65749,0.00270
3097.61690,0.00277
3095.57631,0.00272
3093.53572,0.00276
3091.49513,0.00284
3089.45454,0.00277
3087.41395,0.00268
3085.37336,0.00269
3083.33277,0.00275
3081.29218,0.00279
3079.25158,0.00286
3077.21099,0.00282
3075.17040,0.00270
3073.12981,0.00269
3071.08922,0.00274
3069.04863,0.00274
3067.00804,0.00283
3064.96745,0.00304
3062.92686,0.00319
3060.88627,0.00315
3058.84568,0.00308
3056.80509,0.00306
3054.76449,0.00301
3052.72390,0.00306
3050.68331,0.00321
3048.64272,0.00313
3046.60213,0.00288
3044.56154,0.00277
3042.52095,0.00280
3040.48036,0.00284
3038.43977,0.00284
3036.39918,0.00280
3034.35859,0.00280
3032.31800,0.00282
3030.27740,0.00281
3028.23681,0.00288
3026.19622,0.00302
3024.15563,0.00311
3022.11504,0.00304
3020.07445,0.00290
3018.03386,0.00288
3015.99327,0.00303
3013.95268,0.00312
3011.91209,0.00298
3009.87150,0.00275
3007.83091,0.00275
3005.79031,0.00290
3003.74972,0.00291
3001.70913,0.00285
2999.66854,0.00292
2997.62795,0.00301
2995.58736,0.00299
2993.54677,0.00301
2991.50618,0.00309
2989.46559,0.00310
2987.42500,0.00309
2985.38441,0.00311
2983.34382,0.00308
2981.30322,0.00312
2979.26263,0.00326
2977.22204,0.00330
2975.18145,0.00326
2973.14086,0.00332
2971.10027,0.00344
2969.05968,0.00347
2967.01909,0.00344
2964.97850,0.00353
2962.93791,0.00371
2960.89732,0.00373
2958.85673,0.00363
2956.81613,0.00361
2954.77554,0.00369
2952.73495,0.00369
2950.69436,0.00360
2948.65377,0.00350
2946.61318,0.00348
2944.57259,0.00351
2942.53200,0.00359
2940.49141,0.00372
2938.45082,0.00383
2936.41023,0.00378
2934.36963,0.00369
2932.32904,0.00364
2930.28845,0.00368
2928.24786,0.00380
2926.20727,0.00386
2924.16668,0.00375
2922.12609,0.00359
2920.08550,0.00357
2918.04491,0.00364
2916.00432,0.00365
2913.96373,0.00360
2911.92314,0.00354
2909.88254,0.00352
2907.84195,0.00355
2905.80136,0.00352
2903.76077,0.00346
2901.72018,0.00351
2899.67959,0.00362
2897.63900,0.00360
2895.59841,0.00346
2893.55782,0.00335
2891.51723,0.00334
2889.47664,0.00335
2887.43605,0.00336
2885.39545,0.00335
2883.35486,0.00333
2881.31427,0.00335
2879.27368,0.00341
2877.23309,0.00341
2875.19250,0.00336
2873.15191,0.00338
2871.11132,0.00342
2869.07073,0.00340
2867.03014,0.00335
2864.98955,0.00333
2862.94896,0.00335
2860.90836,0.00344
2858.86777,0.00358
2856.82718,0.00371
2854.78659,0.00370
2852.74600,0.00359
2850.70541,0.00354
2848.66482,0.00350
2846.62423,0.00339
2844.58364,0.00334
2842.54305,0.00335
2840.50246,0.00332
2838.46187,0.00323
2836.42127,0.00310
2834.38068,0.00301
2832.34009,0.00301
2830.29950,0.00298
2828.25891,0.00295
2826.21832,0.00300
2824.17773,0.00301
2822.13714,0.00299
2820.09655,0.00300
2818.05596,0.00298
2816.01537,0.00297
2813.97478,0.00303
2811.93418,0.00311
2809.89359,0.00312
2807.85300,0.00304
2805.81241,0.00292
2803.77182,0.00292
2801.73123,0.00307
2799.69064,0.00317
2797.65005,0.00314
2795.60946,0.00308
2793.56887,0.00302
2791.52828,0.00306
2789.48768,0.00321
2787.44709,0.00321
2785.40650,0.00305
2783.36591,0.00299
2781.32532,0.00301
2779.28473,0.00300
2777.24414,0.00300
2775.20355,0.00306
2773.16296,0.00318
2771.12237,0.00323
2769.08178,0.00316
2767.04119,0.00306
2765.00059,0.00307
2762.96000,0.00314
2760.91941,0.00317
2758.87882,0.00314
2756.83823,0.00306
2754.79764,0.00306
2752.75705,0.00314
2750.71646,0.00316
2748.67587,0.00312
2746.63528,0.00310
2744.59469,0.00309
2742.55410,0.00306
2740.51350,0.00301
2738.47291,0.00298
2736.43232,0.00296
2734.39173,0.00294
2732.35114,0.00294
2730.31055,0.00298
2728.26996,0.00303
2726.22937,0.00307
2724.18878,0.00310
2722.14819,0.00309
2720.10760,0.00307
2718.06701,0.00306
2716.02641,0.00306
2713.98582,0.00307
2711.94523,0.00307
2709.90464,0.00309
2707.86405,0.00308
2705.82346,0.00302
2703.78287,0.00298
2701.74228,0.00303
2699.70169,0.00307
2697.66110,0.00309
2695.62051,0.00309
2693.57992,0.00312
2691.53932,0.00317
2689.49873,0.00317
2687.45814,0.00314
2685.41755,0.00313
2683.37696,0.00312
2681.33637,0.00308
2679.29578,0.00302
2677.25519,0.00297
2675.21460,0.00301
2673.17401,0.00308
2671.13342,0.00309
2669.09283,0.00304
2667.05223,0.00303
2665.01164,0.00311
2662.97105,0.00322
2660.93046,0.00323
2658.88987,0.00315
2656.84928,0.00306
2654.80869,0.00301
2652.76810,0.00299
2650.72751,0.00300
2648.68692,0.00304
2646.64633,0.00305
2644.60573,0.00294
2642.56514,0.00286
2640.52455,0.00300
2638.48396,0.00320
2636.44337,0.00314
2634.40278,0.00298
2632.36219,0.00298
2630.32160,0.00298
2628.28101,0.00294
2626.24042,0.00296
2624.19983,0.00301
2622.15924,0.00309
2620.11864,0.00320
2618.07805,0.00318
2616.03746,0.00300
2613.99687,0.00281
2611.95628,0.00277
2609.91569,0.00288
2607.87510,0.00297
2605.83451,0.00290
2603.79392,0.00278
2601.75333,0.00282
2599.71274,0.00294
2597.67215,0.00293
2595.63155,0.00285
2593.59096,0.00282
2591.55037,0.00280
2589.50978,0.00273
2587.46919,0.00277
2585.42860,0.00289
2583.38801,0.00299
2581.34742,0.00310
2579.30683,0.00318
2577.26624,0.00317
2575.22565,0.00321
2573.18506,0.00329
2571.14446,0.00312
2569.10387,0.00282
2567.06328,0.00273
2565.02269,0.00290
2562.98210,0.00314
2560.94151,0.00317
2558.90092,0.00300
2556.86033,0.00290
2554.81974,0.00294
2552.77915,0.00304
2550.73856,0.00309
2548.69797,0.00304
2546.65737,0.00298
2544.61678,0.00290
2542.57619,0.00277
2540.53560,0.00268
2538.49501,0.00263
2536.45442,0.00259
2534.41383,0.00268
2532.37324,0.00296
2530.33265,0.00305
2528.29206,0.00277
2526.25147,0.00254
2524.21088,0.00262
2522.17028,0.00286
2520.12969,0.00306
2518.08910,0.00316
2516.04851,0.00309
2514.00792,0.00298
2511.96733,0.00298
2509.92674,0.00304
2507.88615,0.00304
2505.84556,0.00303
2503.80497,0.00304
2501.76438,0.00299
2499.72378,0.00288
2497.68319,0.00288
2495.64260,0.00302
2493.60201,0.00307
2491.56142,0.00307
2489.52083,0.00334
2487.48024,0.00381
2485.43965,0.00408
2483.39906,0.00412
2481.35847,0.00401
2479.31788,0.00378
2477.27729,0.00354
2475.23669,0.00342
2473.19610,0.00343
2471.15551,0.00335
2469.11492,0.00312
2467.07433,0.00303
2465.03374,0.00312
2462.99315,0.00312
2460.95256,0.00302
2458.91197,0.00297
2456.87138,0.00300
2454.83079,0.00302
2452.79020,0.00291
2450.74960,0.00286
2448.70901,0.00302
2446.66842,0.00318
2444.62783,0.00313
2442.58724,0.00302
2440.54665,0.00297
2438.50606,0.00292
2436.46547,0.00283
2434.42488,0.00283
2432.38429,0.00295
2430.34370,0.00299
2428.30311,0.00294
2426.26251,0.00297
2424.22192,0.00311
2422.18133,0.00312
2420.14074,0.00290
2418.10015,0.00267
2416.05956,0.00267
2414.01897,0.00288
2411.97838,0.00298
2409.93779,0.00288
2407.89720,0.00282
2405.85661,0.00290
2403.81602,0.00306
2401.77542,0.00314
2399.73483,0.00304
2397.69424,0.00291
2395.65365,0.00295
2393.61306,0.00304
2391.57247,0.00290
2389.53188,0.00277
2387.49129,0.00283
2385.45070,0.00298
2383.41011,0.00316
2381.36952,0.00330
2379.32893,0.00344
2377.28833,0.00367
2375.24774,0.00382
2373.20715,0.00368
2371.16656,0.00351
2369.12597,0.00350
2367.08538,0.00341
2365.04479,0.00327
2363.00420,0.00339
2360.96361,0.00362
2358.92302,0.00372
2356.88243,0.00367
2354.84183,0.00350
2352.80124,0.00345
2350.76065,0.00354
2348.72006,0.00360
2346.67947,0.00350
2344.63888,0.00322
2342.59829,0.00297
2340.55770,0.00299
2338.51711,0.00314
2336.47652,0.00333
2334.43593,0.00355
2332.39534,0.00354
2330.35474,0.00324
2328.31415,0.00304
2326.27356,0.00325
2324.23297,0.00364
2322.19238,0.00390
2320.15179,0.00387
2318.11120,0.00356
2316.07061,0.00332
2314.03002,0.00331
2311.98943,0.00335
2309.94884,0.00321
2307.90825,0.00300
2305.86765,0.00306
2303.82706,0.00328
2301.78647,0.00330
2299.74588,0.00316
2297.70529,0.00312
2295.66470,0.00314
2293.62411,0.00315
2291.58352,0.00313
2289.54293,0.00314
2287.50234,0.00321
2285.46175,0.00315
2283.42116,0.00297
2281.38056,0.00295
2279.33997,0.00291
2277.29938,0.00279
2275.25879,0.00288
2273.21820,0.00303
2271.17761,0.00313
2269.13702,0.00310
2267.09643,0.00272
2265.05584,0.00227
2263.01525,0.00211
2260.97466,0.00206
2258.93407,0.00198
2256.89347,0.00201
2254.85288,0.00224
2252.81229,0.00271
2250.77170,0.00337
2248.73111,0.00387
2246.69052,0.00369
2244.64993,0.00301
2242.60934,0.00257
2240.56875,0.00239
2238.52816,0.00238
2236.48757,0.00273
2234.44698,0.00316
2232.40638,0.00363
2230.36579,0.00418
2228.32520,0.00427
2226.28461,0.00392
2224.24402,0.00374
2222.20343,0.00379
2220.16284,0.00392
2218.12225,0.00387
2216.08166,0.00333
2214.04107,0.00267
2212.00048,0.00238
2209.95988,0.00252
2207.91929,0.00268
2205.87870,0.00264
2203.83811,0.00260
2201.79752,0.00257
2199.75693,0.00261
2197.71634,0.00288
2195.67575,0.00319
2193.63516,0.00344
2191.59457,0.00327
2189.55398,0.00264
2187.51339,0.00244
2185.47279,0.00258
2183.43220,0.00251
2181.39161,0.00288
2179.35102,0.00344
2177.31043,0.00338
2175.26984,0.00290
2173.22925,0.00261
2171.18866,0.00269
2169.14807,0.00241
2167.10748,0.00154
2165.06689,0.00098
2163.02630,0.00136
2160.98570,0.00259
2158.94511,0.00370
2156.90452,0.00375
2154.86393,0.00313
2152.82334,0.00239
2150.78275,0.00161
2148.74216,0.00126
2146.70157,0.00174
2144.66098,0.00223
2142.62039,0.00217
2140.57980,0.00219
2138.53921,0.00254
2136.49861,0.00286
2134.45802,0.00293
2132.41743,0.00288
2130.37684,0.00317
2128.33625,0.00357
2126.29566,0.00354
2124.25507,0.00326
2122.21448,0.00308
2120.17389,0.00303
2118.13330,0.00307
2116.09271,0.00305
2114.05212,0.00289
2112.01152,0.00282
2109.97093,0.00288
2107.93034,0.00283
2105.88975,0.00277
2103.84916,0.00286
2101.80857,0.00296
2099.76798,0.00290
2097.72739,0.00278
2095.68680,0.00286
2093.64621,0.00303
2091.60562,0.00311
2089.56503,0.00315
2087.52443,0.00298
2085.48384,0.00265
2083.44325,0.00267
2081.40266,0.00311
2079.36207,0.00332
2077.32148,0.00302
2075.28089,0.00294
2073.24030,0.00330
2071.19971,0.00337
2069.15912,0.00292
2067.11853,0.00269
2065.07793,0.00301
2063.03734,0.00319
2060.99675,0.00305
2058.95616,0.00277
2056.91557,0.00238
2054.87498,0.00215
2052.83439,0.00215
2050.79380,0.00249
2048.75321,0.00308
2046.71262,0.00318
2044.67203,0.00270
2042.63144,0.00216
2040.59084,0.00189
2038.55025,0.00186
2036.50966,0.00198
2034.46907,0.00235
2032.42848,0.00261
2030.38789,0.00265
2028.34730,0.00301
2026.30671,0.00379
2024.26612,0.00448
2022.22553,0.00453
2020.18494,0.00389
2018.14435,0.00309
2016.10375,0.00250
2014.06316,0.00213
2012.02257,0.00195
2009.98198,0.00208
2007.94139,0.00246
2005.90080,0.00249
2003.86021,0.00241
2001.81962,0.00275
1999.77903,0.00285
1997.73844,0.00253
1995.69785,0.00231
1993.65726,0.00229
1991.61666,0.00276
1989.57607,0.00341
1987.53548,0.00333
1985.49489,0.00278
1983.45430,0.00237
1981.41371,0.00243
1979.37312,0.00284
1977.33253,0.00312
1975.29194,0.00356
1973.25135,0.00427
1971.21076,0.00447
1969.17017,0.00407
1967.12957,0.00349
1965.08898,0.00314
1963.04839,0.00322
1961.00780,0.00354
1958.96721,0.00383
1956.92662,0.00365
1954.88603,0.00326
1952.84544,0.00325
1950.80485,0.00347
1948.76426,0.00358
1946.72367,0.00369
1944.68308,0.00384
1942.64248,0.00394
1940.60189,0.00395
1938.56130,0.00374
1936.52071,0.00340
1934.48012,0.00322
1932.43953,0.00326
1930.39894,0.00335
1928.35835,0.00332
1926.31776,0.00313
1924.27717,0.00284
1922.23658,0.00279
1920.19598,0.00311
1918.15539,0.00353
1916.11480,0.00389
1914.07421,0.00387
1912.03362,0.00361
1909.99303,0.00371
1907.95244,0.00378
1905.91185,0.00346
1903.87126,0.00332
1901.83067,0.00350
1899.79008,0.00377
1897.74949,0.00398
1895.70889,0.00399
1893.66830,0.00393
1891.62771,0.00418
1889.58712,0.00469
1887.54653,0.00489
1885.50594,0.00469
1883.46535,0.00455
1881.42476,0.00455
1879.38417,0.00450
1877.34358,0.00434
1875.30299,0.00408
1873.26240,0.00381
1871.22180,0.00385
1869.18121,0.00425
1867.14062,0.00435
1865.10003,0.00411
1863.05944,0.00403
1861.01885,0.00418
1858.97826,0.00424
1856.93767,0.00404
1854.89708,0.00382
1852.85649,0.00380
1850.81590,0.00396
1848.77531,0.00424
1846.73471,0.00448
1844.69412,0.00442
1842.65353,0.00404
1840.61294,0.00378
1838.57235,0.00375
1836.53176,0.00367
1834.49117,0.00349
1832.45058,0.00355
1830.40999,0.00384
1828.36940,0.00397
1826.32881,0.00385
1824.28822,0.00362
1822.24762,0.00346
1820.20703,0.00345
1818.16644,0.00340
1816.12585,0.00342
1814.08526,0.00360
1812.04467,0.00373
1810.00408,0.00362
1807.96349,0.00349
1805.92290,0.00350
1803.88231,0.00359
1801.84172,0.00368
1799.80113,0.00388
1797.76053,0.00409
1795.71994,0.00413
1793.67935,0.00417
1791.63876,0.00428
1789.59817,0.00420
1787.55758,0.00402
1785.51699,0.00395
1783.47640,0.00399
1781.43581,0.00409
1779.39522,0.00421
1777.35463,0.00437
1775.31404,0.00462
1773.27344,0.00492
1771.23285,0.00510
1769.19226,0.00503
1767.15167,0.00482
1765.11108,0.00467
1763.07049,0.00469
1761.02990,0.00474
1758.98931,0.00475
1756.94872,0.00480
1754.90813,0.00491
1752.86754,0.00514
1750.82694,0.00545
1748.78635,0.00567
1746.74576,0.00579
1744.70517,0.00581
1742.66458,0.00578
1740.62399,0.00586
1738.58340,0.00597
1736.54281,0.00612
1734.50222,0.00640
1732.46163,0.00640
1730.42104,0.00602
1728.38045,0.00565
1726.33985,0.00539
1724.29926,0.00522
1722.25867,0.00507
1720.21808,0.00507
1718.17749,0.00524
1716.13690,0.00522
1714.09631,0.00494
1712.05572,0.00478
1710.01513,0.00484
1707.97454,0.00494
1705.93395,0.00502
1703.89336,0.00513
1701.85276,0.00534
1699.81217,0.00547
1697.77158,0.00531
1695.73099,0.00508
1693.69040,0.00491
1691.64981,0.00484
1689.60922,0.00485
1687.56863,0.00493
1685.52804,0.00519
1683.48745,0.00546
1681.44686,0.00539
1679.40627,0.00516
1677.36567,0.00496
1675.32508,0.00493
1673.28449,0.00501
1671.24390,0.00518
1669.20331,0.00537
1667.16272,0.00531
1665.12213,0.00525
1663.08154,0.00538
1661.04095,0.00536
1659.00036,0.00525
1656.95977,0.00538
1654.91918,0.00570
1652.87858,0.00582
1650.83799,0.00560
1648.79740,0.00561
1646.75681,0.00572
1644.71622,0.00553
1642.67563,0.00536
1640.63504,0.00541
1638.59445,0.00562
1636.55386,0.00584
1634.51327,0.00578
1632.47268,0.00562
1630.43209,0.00560
1628.39149,0.00564
1626.35090,0.00564
1624.31031,0.00562
1622.26972,0.00555
1620.22913,0.00549
1618.18854,0.00552
1616.14795,0.00554
1614.10736,0.00546
1612.06677,0.00550
1610.02618,0.00570
1607.98559,0.00585
1605.94499,0.00586
1603.90440,0.00584
1601.86381,0.00586
1599.82322,0.00587
1597.78263,0.00587
1595.74204,0.00588
1593.70145,0.00584
1591.66086,0.00577
1589.62027,0.00573
1587.57968,0.00575
1585.53909,0.00584
1583.49850,0.00594
1581.45790,0.00603
1579.41731,0.00614
1577.37672,0.00632
1575.33613,0.00643
1573.29554,0.00637
1571.25495,0.00632
1569.21436,0.00623
1567.17377,0.00608
1565.13318,0.00597
1563.09259,0.00594
1561.05200,0.00608
1559.01141,0.00628
1556.97081,0.00605
1554.93022,0.00577
1552.88963,0.00567
1550.84904,0.00568
1548.80845,0.00574
1546.76786,0.00584
1544.72727,0.00602
1542.68668,0.00624
1540.64609,0.00630
1538.60550,0.00600
1536.56491,0.00582
1534.52432,0.00590
1532.48372,0.00594
1530.44313,0.00586
1528.40254,0.00585
1526.36195,0.00586
1524.32136,0.00592
1522.28077,0.00613
1520.24018,0.00614
1518.19959,0.00592
1516.15900,0.00576
1514.11841,0.00568
1512.07782,0.00570
1510.03723,0.00591
1507.99663,0.00620
1505.95604,0.00609
1503.91545,0.00568
1501.87486,0.00550
1499.83427,0.00552
1497.79368,0.00558
1495.75309,0.00560
1493.71250,0.00568
1491.67191,0.00595
1489.63132,0.00618
1487.59073,0.00606
1485.55014,0.00583
1483.50954,0.00582
1481.46895,0.00592
1479.42836,0.00597
1477.38777,0.00604
1475.34718,0.00619
1473.30659,0.00631
1471.26600,0.00627
1469.22541,0.00623
1467.18482,0.00625
1465.14423,0.00625
1463.10364,0.00622
1461.06304,0.00627
1459.02245,0.00650
1456.98186,0.00674
1454.94127,0.00668
1452.90068,0.00656
1450.86009,0.00652
1448.81950,0.00651
1446.77891,0.00644
1444.73832,0.00630
1442.69773,0.00621
1440.65714,0.00627
1438.61655,0.00639
1436.57595,0.00636
1434.53536,0.00624
1432.49477,0.00621
1430.45418,0.00623
1428.41359,0.00622
1426.37300,0.00625
1424.33241,0.00632
1422.29182,0.00642
1420.25123,0.00661
1418.21064,0.00674
1416.17005,0.00663
1414.12946,0.00650
1412.08886,0.00643
1410.04827,0.00638
1408.00768,0.00643
1405.96709,0.00659
1403.92650,0.00664
1401.88591,0.00660
1399.84532,0.00668
1397.80473,0.00681
1395.76414,0.00685
1393.72355,0.00680
1391.68296,0.00682
1389.64237,0.00694
1387.60177,0.00702
1385.56118,0.00694
1383.52059,0.00689
1381.48000,0.00698
1379.43941,0.00712
1377.39882,0.00727
1375.35823,0.00743
1373.31764,0.00750
1371.27705,0.00755
1369.23646,0.00777
1367.19587,0.00818
1365.15528,0.00877
1363.11468,0.00955
1361.07409,0.01036
1359.03350,0.01096
1356.99291,0.01135
1354.95232,0.01160
1352.91173,0.01160
1350.87114,0.01134
1348.83055,0.01094
1346.78996,0.01048
1344.74937,0.00991
1342.70878,0.00939
1340.66819,0.00903
1338.62759,0.00875
1336.58700,0.00843
1334.54641,0.00813
1332.50582,0.00794
1330.46523,0.00788
1328.42464,0.00787
1326.38405,0.00781
1324.34346,0.00775
1322.30287,0.00776
1320.26228,0.00781
1318.22169,0.00791
1316.18109,0.00805
1314.14050,0.00815
1312.09991,0.00817
1310.05932,0.00814
1308.01873,0.00808
1305.97814,0.00806
1303.93755,0.00809
1301.89696,0.00815
1299.85637,0.00819
1297.81578,0.00817
1295.77519,0.00818
1293.73460,0.00825
1291.69400,0.00830
1289.65341,0.00834
1287.61282,0.00836
1285.57223,0.00836
1283.53164,0.00837
1281.49105,0.00843
1279.45046,0.00853
1277.40987,0.00866
1275.36928,0.00876
1273.32869,0.00883
1271.28810,0.00896
1269.24751,0.00919
1267.20691,0.00946
1265.16632,0.00969
1263.12573,0.00995
1261.08514,0.01031
1259.04455,0.01058
1257.00396,0.01069
1254.96337,0.01079
1252.92278,0.01096
1250.88219,0.01106
1248.84160,0.01106
1246.80101,0.01097
1244.76042,0.01085
1242.71982,0.01076
1240.67923,0.01070
1238.63864,0.01067
1236.59805,0.01070
1234.55746,0.01083
1232.51687,0.01099
1230.47628,0.01114
1228.43569,0.01129
1226.39510,0.01141
1224.35451,0.01151
1222.31392,0.01165
1220.27333,0.01175
1218.23273,0.01179
1216.19214,0.01184
1214.15155,0.01188
1212.11096,0.01188
1210.07037,0.01191
1208.02978,0.01206
1205.98919,0.01223
1203.94860,0.01236
1201.90801,0.01246
1199.86742,0.01250
1197.82683,0.01256
1195.78624,0.01265
1193.74564,0.01273
1191.70505,0.01293
1189.66446,0.01323
1187.62387,0.01348
1185.58328,0.01365
1183.54269,0.01385
1181.50210,0.01413
1179.46151,0.01452
1177.42092,0.01497
1175.38033,0.01556
1173.33974,0.01617
1171.29914,0.01650
1169.25855,0.01649
1167.21796,0.01636
1165.17737,0.01631
1163.13678,0.01636
1161.09619,0.01643
1159.05560,0.01648
1157.01501,0.01670
1154.97442,0.01718
1152.93383,0.01773
1150.89324,0.01828
1148.85265,0.01896
1146.81205,0.01975
1144.77146,0.02046
1142.73087,0.02088
1140.69028,0.02089
1138.64969,0.02063
1136.60910,0.02043
1134.56851,0.02054
1132.52792,0.02113
1130.48733,0.02238
1128.44674,0.02414
1126.40615,0.02588
1124.36556,0.02700
1122.32496,0.02724
1120.28437,0.02672
1118.24378,0.02570
1116.20319,0.02450
1114.16260,0.02354
1112.12201,0.02311
1110.08142,0.02318
1108.04083,0.02355
1106.00024,0.02396
1103.95965,0.02430
1101.91906,0.02446
1099.87847,0.02420
1097.83787,0.02355
1095.79728,0.02281
1093.75669,0.02210
1091.71610,0.02142
1089.67551,0.02082
1087.63492,0.02031
1085.59433,0.01994
1083.55374,0.01975
1081.51315,0.01963
1079.47256,0.01949
1077.43197,0.01938
1075.39138,0.01929
1073.35078,0.01922
1071.31019,0.01910
1069.26960,0.01888
1067.22901,0.01869
1065.18842,0.01861
1063.14783,0.01863
1061.10724,0.01869
1059.06665,0.01861
1057.02606,0.01838
1054.98547,0.01820
1052.94488,0.01818
1050.90429,0.01819
1048.86369,0.01813
1046.82310,0.01805
1044.78251,0.01807
1042.74192,0.01814
1040.70133,0.01809
1038.66074,0.01795
1036.62015,0.01786
1034.57956,0.01778
1032.53897,0.01764
1030.49838,0.01748
1028.45779,0.01738
1026.41719,0.01735
1024.37660,0.01733
1022.33601,0.01724
1020.29542,0.01710
1018.25483,0.01704
1016.21424,0.01705
1014.17365,0.01702
1012.13306,0.01701
1010.09247,0.01705
1008.05188,0.01716
1006.01129,0.01730
1003.97070,0.01738
1001.93010,0.01756
999.88951,0.01797
997.84892,0.01846
995.80833,0.01873
993.76774,0.01862
991.72715,0.01823
989.68656,0.01774
987.64597,0.01729
985.60538,0.01700
983.56479,0.01706
981.52420,0.01750
979.48361,0.01780
977.44301,0.01759
975.40242,0.01710
973.36183,0.01666
971.32124,0.01643
969.28065,0.01639
967.24006,0.01653
965.19947,0.01678
963.15888,0.01702
961.11829,0.01730
959.07770,0.01760
957.03711,0.01780
954.99652,0.01801
952.95592,0.01827
950.91533,0.01855
948.87474,0.01892
946.83415,0.01943
944.79356,0.01996
942.75297,0.02050
940.71238,0.02119
938.67179,0.02204
936.63120,0.02291
934.59061,0.02388
932.55002,0.02527
930.50943,0.02723
928.46883,0.02983
926.42824,0.03372
924.38765,0.04060
922.34706,0.05398
920.30647,0.08016
918.26588,0.12596
916.22529,0.19376
914.18470,0.28109
912.14411,0.38603
910.10352,0.50911
908.06293,0.64761
906.02234,0.78596
903.98174,0.88399
901.94115,0.87737
899.90056,0.74747
897.85997,0.57418
895.81938,0.43322
893.77879,0.33970
891.73820,0.27469
889.69761,0.22093
887.65702,0.17602
885.61643,0.14239
883.57584,0.11933
881.53524,0.10372
879.49465,0.09265
877.45406,0.08449
875.41347,0.07836
873.37288,0.07362
871.33229,0.06984
869.29170,0.06670
867.25111,0.06411
865.21052,0.06200
863.16993,0.06015
861.12934,0.05863
859.08875,0.05756
857.04815,0.05682
855.00756,0.05613
852.96697,0.05545
850.92638,0.05486
848.88579,0.05429
846.84520,0.05394
844.80461,0.05382
842.76402,0.05370
840.72343,0.05365
838.68284,0.05368
836.64225,0.05367
834.60166,0.05364
832.56106,0.05372
830.52047,0.05415
828.47988,0.05493
826.43929,0.05595
824.39870,0.05744
822.35811,0.05987
820.31752,0.06362
818.27693,0.06852
816.23634,0.07390
814.19575,0.07945
812.15516,0.08630
810.11457,0.09693
808.07397,0.11383
806.03338,0.13715
803.99279,0.16241
801.95220,0.18030
799.91161,0.18202
797.87102,0.16753
795.83043,0.14561
793.78984,0.12538
791.74925,0.11116
789.70866,0.10338
787.66807,0.10178
785.62748,0.10954
783.58688,0.13793
781.54629,0.20380
779.50570,0.31336
777.46511,0.43908
775.42452,0.50595
773.38393,0.45562
771.34334,0.34271
769.30275,0.24466
767.26216,0.18473
765.22157,0.15714
763.18098,0.15281
761.14039,0.16201
759.09979,0.17436
757.05920,0.18294
755.01861,0.18313
752.97802,0.17384
750.93743,0.15859
748.89684,0.14175
746.85625,0.12672
744.81566,0.11492
742.77507,0.10653
740.73448,0.10127
738.69389,0.09814
736.65329,0.09611
734.61270,0.09469
732.57211,0.09373
730.53152,0.09307
728.49093,0.09266
726.45034,0.09248
724.40975,0.09246
722.36916,0.09265
720.32857,0.09303
718.28798,0.09331
716.24739,0.09338
714.20680,0.09338
712.16620,0.09347
710.12561,0.09379
708.08502,0.09424
706.04443,0.09462
704.00384,0.09478
701.96325,0.09496
699.92266,0.09537
697.88207,0.09595
695.84148,0.09659
693.80089,0.09731
691.76030,0.09811
689.71971,0.09888
687.67911,0.09948
685.63852,0.09996
683.59793,0.10058
681.55734,0.10148
679.51675,0.10237
677.47616,0.10313
675.43557,0.10394
673.39498,0.10441
671.35439,0.10424
669.31380,0.10409
667.27321,0.10490
665.23262,0.10580
663.19202,0.10632
661.15143,0.10681
659.11084,0.10725
657.07025,0.10769
655.02966,0.10829
652.98907,0.10896
650.94848,0.10938
648.90789,0.10969
646.86730,0.11029
644.82671,0.11116
642.78612,0.11196
640.74553,0.11271
638.70493,0.11364
636.66434,0.11436
634.62375,0.11491
632.58316,0.11564
630.54257,0.11616
628.50198,0.11650
626.46139,0.11730
624.42080,0.11836
622.38021,0.11914
620.33962,0.11993
618.29903,0.12082
616.25844,0.12164
614.21784,0.12257
612.17725,0.12352
610.13666,0.12447
608.09607,0.12549
606.05548,0.12629
604.01489,0.12700
601.97430,0.12787
599.93371,0.12870
597.89312,0.12936
595.85253,0.12987
593.81194,0.13034
591.77135,0.13108
589.73075,0.13225
587.69016,0.13357
585.64957,0.13455
583.60898,0.13510
581.56839,0.13585
579.52780,0.13715
577.48721,0.13839
575.44662,0.13886
573.40603,0.13925
571.36544,0.14048
569.32485,0.14211
567.28425,0.14341
565.24366,0.14418
563.20307,0.14475
561.16248,0.14560
559.12189,0.14662
557.08130,0.14763
555.04071,0.14859
553.00012,0.14944
550.95953,0.15034
548.91894,0.15116
546.87835,0.15182
544.83776,0.15276
542.79716,0.15424
540.75657,0.15565
538.71598,0.15659
536.67539,0.15713
534.63480,0.15758
532.59421,0.15869
530.55362,0.16038
528.51303,0.16177
526.47244,0.16242
524.43185,0.16237
522.39126,0.16203
520.35067,0.16244
518.31007,0.16417
516.26948,0.16596
514.22889,0.16723
512.18830,0.16877
510.14771,0.17040
508.10712,0.17147
506.06653,0.17266
504.02594,0.17422
501.98535,0.17503
499.94476,0.17522
497.90417,0.17555
495.86358,0.17636
493.82298,0.17794
491.78239,0.17965
489.74180,0.18110
487.70121,0.18261
485.66062,0.18372
483.62003,0.18454
481.57944,0.18576
479.53885,0.18713
477.49826,0.18844
475.45767,0.18952
473.41708,0.19007
471.37649,0.19070
469.33589,0.19182
467.29530,0.19328
465.25471,0.19512
463.21412,0.19648
461.17353,0.19710
459.13294,0.19799
457.09235,0.19892
455.05176,0.19922
453.01117,0.20001
450.97058,0.20192
448.92999,0.20341
446.88940,0.20390
444.84880,0.20509
442.80821,0.20758
440.76762,0.20928
438.72703,0.20983
436.68644,0.21117
434.64585,0.21272
432.60526,0.21336
430.56467,0.21410
428.52408,0.21460
426.48349,0.21433
424.44290,0.21562
422.40230,0.22022
420.36171,0.22469
418.32112,0.22526
416.28053,0.22547
414.23994,0.22754
412.19935,0.22966
410.15876,0.23057
408.11817,0.23060
406.07758,0.23168
404.03699,0.23370
401.99640,0.23511
399.95581,0.23635
