3997.51747,0.00071
3995.47687,0.00086
3993.43628,0.00097
3991.39569,0.00106
3989.35510,0.00103
3987.31451,0.00092
3985.27392,0.00092
3983.23333,0.00103
3981.19274,0.00100
3979.15215,0.00089
3977.11156,0.00087
3975.07097,0.00088
3973.03037,0.00082
3970.98978,0.00075
3968.94919,0.00076
3966.90860,0.00083
3964.86801,0.00084
3962.82742,0.00088
3960.78683,0.00095
3958.74624,0.00096
3956.70565,0.00095
3954.66506,0.00087
3952.62447,0.00070
3950.58388,0.00058
3948.54328,0.00060
3946.50269,0.00078
3944.46210,0.00104
3942.42151,0.00118
3940.38092,0.00115
3938.34033,0.00108
3936.29974,0.00105
3934.25915,0.00100
3932.21856,0.00094
3930.17797,0.00095
3928.13738,0.00099
3926.09679,0.00100
3924.05619,0.00100
3922.01560,0.00111
3919.97501,0.00128
3917.93442,0.00140
3915.89383,0.00140
3913.85324,0.00121
3911.81265,0.00099
3909.77206,0.00100
3907.73147,0.00122
3905.69088,0.00138
3903.65029,0.00139
3901.60970,0.00137
3899.56910,0.00135
3897.52851,0.00126
3895.48792,0.00116
3893.44733,0.00116
3891.40674,0.00115
3889.36615,0.00111
3887.32556,0.00117
3885.28497,0.00137
3883.24438,0.00168
3881.20379,0.00212
3879.16320,0.00247
3877.12261,0.00250
3875.08201,0.00248
3873.04142,0.00271
3871.00083,0.00300
3868.96024,0.00300
3866.91965,0.00273
3864.87906,0.00245
3862.83847,0.00210
3860.79788,0.00156
3858.75729,0.00103
3856.71670,0.00089
3854.67611,0.00129
3852.63552,0.00164
3850.59492,0.00144
3848.55433,0.00117
3846.51374,0.00107
3844.47315,0.00116
3842.43256,0.00128
3840.39197,0.00120
3838.35138,0.00106
3836.31079,0.00106
3834.27020,0.00113
3832.22961,0.00104
3830.18902,0.00071
3828.14842,0.00043
3826.10783,0.00040
3824.06724,0.00051
3822.02665,0.00060
3819.98606,0.00061
3817.94547,0.00063
3815.90488,0.00082
3813.86429,0.00107
3811.82370,0.00106
3809.78311,0.00092
3807.74252,0.00090
3805.70193,0.00104
3803.66133,0.00113
3801.62074,0.00111
3799.58015,0.00094
3797.53956,0.00083
3795.49897,0.00094
3793.45838,0.00109
3791.41779,0.00120
3789.37720,0.00131
3787.33661,0.00126
3785.29602,0.00106
3783.25543,0.00095
3781.21484,0.00104
3779.17424,0.00119
3777.13365,0.00117
3775.09306,0.00105
3773.05247,0.00092
3771.01188,0.00079
3768.97129,0.00081
3766.93070,0.00098
3764.89011,0.00102
3762.84952,0.00092
3760.80893,0.00091
3758.76834,0.00102
3756.72775,0.00097
3754.68715,0.00058
3752.64656,0.00007
3750.60597,0.00001
3748.56538,0.00036
3746.52479,0.00067
3744.48420,0.00094
3742.44361,0.00096
3740.40302,0.00083
3738.36243,0.00094
3736.32184,0.00136
3734.28125,0.00157
3732.24066,0.00144
3730.20006,0.00116
3728.15947,0.00078
3726.11888,0.00063
3724.07829,0.00084
3722.03770,0.00113
3719.99711,0.00127
3717.95652,0.00131
3715.91593,0.00135
3713.87534,0.00137
3711.83475,0.00133
3709.79416,0.00123
3707.75357,0.00115
3705.71297,0.00121
3703.67238,0.00135
3701.63179,0.00151
3699.59120,0.00161
3697.55061,0.00152
3695.51002,0.00134
3693.46943,0.00129
3691.42884,0.00134
3689.38825,0.00148
3687.34766,0.00170
3685.30707,0.00175
3683.26647,0.00172
3681.22588,0.00163
3679.18529,0.00139
3677.14470,0.00115
3675.10411,0.00131
3673.06352,0.00167
3671.02293,0.00189
3668.98234,0.00202
3666.94175,0.00208
3664.90116,0.00219
3662.86057,0.00234
3660.81998,0.00233
3658.77938,0.00222
3656.73879,0.00219
3654.69820,0.00232
3652.65761,0.00253
3650.61702,0.00261
3648.57643,0.00271
3646.53584,0.00301
3644.49525,0.00335
3642.45466,0.00351
3640.41407,0.00336
3638.37348,0.00317
3636.33289,0.00326
3634.29229,0.00343
3632.25170,0.00343
3630.21111,0.00347
3628.17052,0.00361
3626.12993,0.00365
3624.08934,0.00362
3622.04875,0.00366
3620.00816,0.00375
3617.96757,0.00380
3615.92698,0.00382
3613.88639,0.00379
3611.84580,0.00379
3609.80520,0.00396
3607.76461,0.00422
3605.72402,0.00432
3603.68343,0.00428
3601.64284,0.00441
3599.60225,0.00467
3597.56166,0.00473
3595.52107,0.00466
3593.48048,0.00456
3591.43989,0.00455
3589.39930,0.00471
3587.35871,0.00486
3585.31811,0.00493
3583.27752,0.00502
3581.23693,0.00523
3579.19634,0.00547
3577.15575,0.00545
3575.11516,0.00534
3573.07457,0.00543
3571.03398,0.00553
3568.99339,0.00553
3566.95280,0.00546
3564.91221,0.00530
3562.87162,0.00529
3560.83102,0.00549
3558.79043,0.00571
3556.74984,0.00580
3554.70925,0.00587
3552.66866,0.00604
3550.62807,0.00610
3548.58748,0.00608
3546.54689,0.00622
3544.50630,0.00636
3542.46571,0.00632
3540.42512,0.00632
3538.38452,0.00643
3536.34393,0.00654
3534.30334,0.00665
3532.26275,0.00663
3530.22216,0.00650
3528.18157,0.00652
3526.14098,0.00684
3524.10039,0.00704
3522.05980,0.00698
3520.01921,0.00695
3517.97862,0.00695
3515.93803,0.00692
3513.89743,0.00693
3511.85684,0.00696
3509.81625,0.00701
3507.77566,0.00713
3505.73507,0.00718
3503.69448,0.00727
3501.65389,0.00745
3499.61330,0.00755
3497.57271,0.00763
3495.53212,0.00774
3493.49153,0.00783
3491.45094,0.00792
3489.41034,0.00798
3487.36975,0.00803
3485.32916,0.00807
3483.28857,0.00799
3481.24798,0.00790
3479.20739,0.00788
3477.16680,0.00777
3475.12621,0.00762
3473.08562,0.00759
3471.04503,0.00769
3469.00444,0.00787
3466.96385,0.00813
3464.92325,0.00838
3462.88266,0.00841
3460.84207,0.00834
3458.80148,0.00836
3456.76089,0.00835
3454.72030,0.00839
3452.67971,0.00864
3450.63912,0.00883
3448.59853,0.00873
3446.55794,0.00853
3444.51735,0.00850
3442.47676,0.00862
3440.43616,0.00874
3438.39557,0.00885
3436.35498,0.00896
3434.31439,0.00900
3432.27380,0.00892
3430.23321,0.00887
3428.19262,0.00900
3426.15203,0.00904
3424.11144,0.00894
3422.07085,0.00901
3420.03026,0.00929
3417.98967,0.00954
3415.94907,0.00954
3413.90848,0.00939
3411.86789,0.00942
3409.82730,0.00958
3407.78671,0.00958
3405.74612,0.00953
3403.70553,0.00972
3401.66494,0.00992
3399.62435,0.00982
3397.58376,0.00966
3395.54317,0.00985
3393.50257,0.01008
3391.46198,0.00995
3389.42139,0.00971
3387.38080,0.00966
3385.34021,0.00971
3383.29962,0.00979
3381.25903,0.00991
3379.21844,0.00994
3377.17785,0.00987
3375.13726,0.00985
3373.09667,0.00985
3371.05608,0.00976
3369.01548,0.00964
3366.97489,0.00959
3364.93430,0.00976
3362.89371,0.01010
3360.85312,0.01034
3358.81253,0.01035
3356.77194,0.01024
3354.73135,0.01017
3352.69076,0.01015
3350.65017,0.01012
3348.60958,0.01008
3346.56899,0.01009
3344.52839,0.01004
3342.48780,0.00990
3340.44721,0.00974
3338.40662,0.00960
3336.36603,0.00953
3334.32544,0.00957
3332.28485,0.00980
3330.24426,0.01004
3328.20367,0.01001
3326.16308,0.00980
3324.12249,0.00966
3322.08190,0.00967
3320.04130,0.00975
3318.00071,0.00982
3315.96012,0.00983
3313.91953,0.00972
3311.87894,0.00964
3309.83835,0.00975
3307.79776,0.00986
3305.75717,0.00986
3303.71658,0.00990
3301.67599,0.01004
3299.63540,0.01019
3297.59481,0.01030
3295.55421,0.01025
3293.51362,0.01004
3291.47303,0.00989
3289.43244,0.00991
3287.39185,0.01003
3285.35126,0.01009
3283.31067,0.01005
3281.27008,0.00997
3279.22949,0.00993
3277.18890,0.00995
3275.14831,0.00998
3273.10772,0.00999
3271.06712,0.00994
3269.02653,0.00989
3266.98594,0.00992
3264.94535,0.00989
3262.90476,0.00970
3260.86417,0.00946
3258.82358,0.00935
3256.78299,0.00948
3254.74240,0.00970
3252.70181,0.00980
3250.66122,0.00977
3248.62062,0.00973
3246.58003,0.00971
3244.53944,0.00971
3242.49885,0.00971
3240.45826,0.00971
3238.41767,0.00971
3236.37708,0.00969
3234.33649,0.00968
3232.29590,0.00967
3230.25531,0.00959
3228.21472,0.00944
3226.17413,0.00934
3224.13353,0.00937
3222.09294,0.00951
3220.05235,0.00964
3218.01176,0.00969
3215.97117,0.00974
3213.93058,0.00987
3211.88999,0.00995
3209.84940,0.00990
3207.80881,0.00977
3205.76822,0.00964
3203.72763,0.00960
3201.68704,0.00963
3199.64644,0.00959
3197.60585,0.00941
3195.56526,0.00922
3193.52467,0.00924
3191.48408,0.00939
3189.44349,0.00953
3187.40290,0.00960
3185.36231,0.00954
3183.32172,0.00946
3181.28113,0.00941
3179.24054,0.00936
3177.19995,0.00933
3175.15935,0.00933
3173.11876,0.00940
3171.07817,0.00962
3169.03758,0.00989
3166.99699,0.00997
3164.95640,0.00993
3162.91581,0.00985
3160.87522,0.00968
3158.83463,0.00960
3156.79404,0.00968
3154.75345,0.00977
3152.71286,0.00988
3150.67226,0.00989
3148.63167,0.00976
3146.59108,0.00972
3144.55049,0.00986
3142.50990,0.00991
3140.46931,0.00980
3138.42872,0.00970
3136.38813,0.00969
3134.34754,0.00985
3132.30695,0.01011
3130.26636,0.01026
3128.22577,0.01033
3126.18517,0.01045
3124.14458,0.01047
3122.10399,0.01038
3120.06340,0.01040
3118.02281,0.01058
3115.98222,0.01072
3113.94163,0.01067
3111.90104,0.01055
3109.86045,0.01064
3107.81986,0.01093
3105.77927,0.01123
3103.73868,0.01145
3101.69808,0.01166
3099.65749,0.01197
3097.61690,0.01225
3095.57631,0.01247
3093.53572,0.01276
3091.49513,0.01307
3089.45454,0.01346
3087.41395,0.01404
3085.37336,0.01480
3083.33277,0.01565
3081.29218,0.01676
3079.25158,0.01836
3077.21099,0.02049
3075.17040,0.02339
3073.12981,0.02777
3071.08922,0.03403
3069.04863,0.04167
3067.00804,0.04901
3064.96745,0.05294
3062.92686,0.05094
3060.88627,0.04391
3058.84568,0.03535
3056.80509,0.02795
3054.76449,0.02246
3052.72390,0.01879
3050.68331,0.01644
3048.64272,0.01469
3046.60213,0.01327
3044.56154,0.01229
3042.52095,0.01167
3040.48036,0.01122
3038.43977,0.01077
3036.39918,0.01031
3034.35859,0.01000
3032.31800,0.00980
3030.27740,0.00965
3028.23681,0.00965
3026.19622,0.00973
3024.15563,0.00968
3022.11504,0.00946
3020.07445,0.00934
3018.03386,0.00939
3015.99327,0.00947
3013.95268,0.00957
3011.91209,0.00959
3009.87150,0.00949
3007.83091,0.00941
3005.79031,0.00947
3003.74972,0.00964
3001.70913,0.00981
2999.66854,0.00995
2997.62795,0.01018
2995.58736,0.01049
2993.54677,0.01069
2991.50618,0.01065
2989.46559,0.01048
2987.42500,0.01039
2985.38441,0.01033
2983.34382,0.01010
2981.30322,0.00979
2979.26263,0.00955
2977.22204,0.00929
2975.18145,0.00900
2973.14086,0.00882
2971.10027,0.00879
2969.05968,0.00875
2967.01909,0.00861
2964.97850,0.00849
2962.93791,0.00842
2960.89732,0.00829
2958.85673,0.00817
2956.81613,0.00803
2954.77554,0.00787
2952.73495,0.00781
2950.69436,0.00776
2948.65377,0.00761
2946.61318,0.00750
2944.57259,0.00742
2942.53200,0.00735
2940.49141,0.00732
2938.45082,0.00732
2936.41023,0.00733
2934.36963,0.00740
2932.32904,0.00742
2930.28845,0.00737
2928.24786,0.00736
2926.20727,0.00740
2924.16668,0.00731
2922.12609,0.00715
2920.08550,0.00711
2918.04491,0.00718
2916.00432,0.00716
2913.96373,0.00703
2911.92314,0.00689
2909.88254,0.00683
2907.84195,0.00689
2905.80136,0.00694
2903.76077,0.00688
2901.72018,0.00678
2899.67959,0.00671
2897.63900,0.00660
2895.59841,0.00648
2893.55782,0.00645
2891.51723,0.00643
2889.47664,0.00634
2887.43605,0.00629
2885.39545,0.00629
2883.35486,0.00621
2881.31427,0.00613
2879.27368,0.00613
2877.23309,0.00613
2875.19250,0.00604
2873.15191,0.00596
2871.11132,0.00589
2869.07073,0.00584
2867.03014,0.00588
2864.98955,0.00591
2862.94896,0.00588
2860.90836,0.00588
2858.86777,0.00587
2856.82718,0.00585
2854.78659,0.00587
2852.74600,0.00584
2850.70541,0.00576
2848.66482,0.00571
2846.62423,0.00566
2844.58364,0.00563
2842.54305,0.00560
2840.50246,0.00551
2838.46187,0.00533
2836.42127,0.00512
2834.38068,0.00499
2832.34009,0.00500
2830.29950,0.00503
2828.25891,0.00499
2826.21832,0.00490
2824.17773,0.00482
2822.13714,0.00482
2820.09655,0.00487
2818.05596,0.00485
2816.01537,0.00478
2813.97478,0.00477
2811.93418,0.00478
2809.89359,0.00468
2807.85300,0.00454
2805.81241,0.00450
2803.77182,0.00444
2801.73123,0.00439
2799.69064,0.00441
2797.65005,0.00441
2795.60946,0.00440
2793.56887,0.00445
2791.52828,0.00453
2789.48768,0.00459
2787.44709,0.00458
2785.40650,0.00448
2783.36591,0.00436
2781.32532,0.00432
2779.28473,0.00437
2777.24414,0.00443
2775.20355,0.00442
2773.16296,0.00438
2771.12237,0.00430
2769.08178,0.00418
2767.04119,0.00405
2765.00059,0.00405
2762.96000,0.00419
2760.91941,0.00423
2758.87882,0.00406
2756.83823,0.00392
2754.79764,0.00396
2752.75705,0.00400
2750.71646,0.00394
2748.67587,0.00395
2746.63528,0.00400
2744.59469,0.00396
2742.55410,0.00388
2740.51350,0.00386
2738.47291,0.00383
2736.43232,0.00378
2734.39173,0.00375
2732.35114,0.00372
2730.31055,0.00366
2728.26996,0.00363
2726.22937,0.00365
2724.18878,0.00371
2722.14819,0.00375
2720.10760,0.00370
2718.06701,0.00362
2716.02641,0.00365
2713.98582,0.00377
2711.94523,0.00377
2709.90464,0.00365
2707.86405,0.00358
2705.82346,0.00359
2703.78287,0.00360
2701.74228,0.00362
2699.70169,0.00366
2697.66110,0.00364
2695.62051,0.00358
2693.57992,0.00362
2691.53932,0.00374
2689.49873,0.00375
2687.45814,0.00367
2685.41755,0.00363
2683.37696,0.00360
2681.33637,0.00356
2679.29578,0.00346
2677.25519,0.00332
2675.21460,0.00326
2673.17401,0.00328
2671.13342,0.00336
2669.09283,0.00341
2667.05223,0.00337
2665.01164,0.00329
2662.97105,0.00327
2660.93046,0.00329
2658.88987,0.00326
2656.84928,0.00320
2654.80869,0.00317
2652.76810,0.00320
2650.72751,0.00324
2648.68692,0.00320
2646.64633,0.00309
2644.60573,0.00295
2642.56514,0.00291
2640.52455,0.00307
2638.48396,0.00324
2636.44337,0.00319
2634.40278,0.00309
2632.36219,0.00309
2630.32160,0.00300
2628.28101,0.00283
2626.24042,0.00272
2624.19983,0.00266
2622.15924,0.00271
2620.11864,0.00288
2618.07805,0.00298
2616.03746,0.00293
2613.99687,0.00283
2611.95628,0.00280
2609.91569,0.00278
2607.87510,0.00274
2605.83451,0.00278
2603.79392,0.00282
2601.75333,0.00284
2599.71274,0.00295
2597.67215,0.00309
2595.63155,0.00317
2593.59096,0.00322
2591.55037,0.00320
2589.50978,0.00315
2587.46919,0.00335
2585.42860,0.00386
2583.38801,0.00434
2581.34742,0.00467
2579.30683,0.00481
2577.26624,0.00465
2575.22565,0.00436
2573.18506,0.00410
2571.14446,0.00377
2569.10387,0.00339
2567.06328,0.00312
2565.02269,0.00298
2562.98210,0.00284
2560.94151,0.00270
2558.90092,0.00272
2556.86033,0.00277
2554.81974,0.00271
2552.77915,0.00271
2550.73856,0.00279
2548.69797,0.00286
2546.65737,0.00292
2544.61678,0.00289
2542.57619,0.00277
2540.53560,0.00257
2538.49501,0.00236
2536.45442,0.00238
2534.41383,0.00261
2532.37324,0.00278
2530.33265,0.00274
2528.29206,0.00251
2526.25147,0.00243
2524.21088,0.00264
2522.17028,0.00287
2520.12969,0.00292
2518.08910,0.00285
2516.04851,0.00283
2514.00792,0.00278
2511.96733,0.00268
2509.92674,0.00258
2507.88615,0.00251
2505.84556,0.00253
2503.80497,0.00259
2501.76438,0.00254
2499.72378,0.00247
2497.68319,0.00255
2495.64260,0.00270
2493.60201,0.00270
2491.56142,0.00257
2489.52083,0.00252
2487.48024,0.00273
2485.43965,0.00296
2483.39906,0.00289
2481.35847,0.00265
2479.31788,0.00243
2477.27729,0.00229
2475.23669,0.00231
2473.19610,0.00246
2471.15551,0.00253
2469.11492,0.00248
2467.07433,0.00244
2465.03374,0.00259
2462.99315,0.00279
2460.95256,0.00283
2458.91197,0.00286
2456.87138,0.00297
2454.83079,0.00301
2452.79020,0.00301
2450.74960,0.00302
2448.70901,0.00307
2446.66842,0.00316
2444.62783,0.00306
2442.58724,0.00271
2440.54665,0.00247
2438.50606,0.00245
2436.46547,0.00245
2434.42488,0.00249
2432.38429,0.00266
2430.34370,0.00280
2428.30311,0.00280
2426.26251,0.00274
2424.22192,0.00270
2422.18133,0.00262
2420.14074,0.00247
2418.10015,0.00240
2416.05956,0.00251
2414.01897,0.00271
2411.97838,0.00282
2409.93779,0.00274
2407.89720,0.00264
2405.85661,0.00268
2403.81602,0.00278
2401.77542,0.00283
2399.73483,0.00276
2397.69424,0.00268
2395.65365,0.00275
2393.61306,0.00284
2391.57247,0.00281
2389.53188,0.00285
2387.49129,0.00301
2385.45070,0.00314
2383.41011,0.00327
2381.36952,0.00343
2379.32893,0.00351
2377.28833,0.00362
2375.24774,0.00372
2373.20715,0.00358
2371.16656,0.00337
2369.12597,0.00323
2367.08538,0.00290
2365.04479,0.00252
2363.00420,0.00236
2360.96361,0.00232
2358.92302,0.00238
2356.88243,0.00250
2354.84183,0.00256
2352.80124,0.00265
2350.76065,0.00286
2348.72006,0.00303
2346.67947,0.00308
2344.63888,0.00304
2342.59829,0.00300
2340.55770,0.00294
2338.51711,0.00278
2336.47652,0.00269
2334.43593,0.00271
2332.39534,0.00268
2330.35474,0.00259
2328.31415,0.00263
2326.27356,0.00275
2324.23297,0.00286
2322.19238,0.00299
2320.15179,0.00295
2318.11120,0.00269
2316.07061,0.00257
2314.03002,0.00280
2311.98943,0.00306
2309.94884,0.00297
2307.90825,0.00265
2305.86765,0.00255
2303.82706,0.00278
2301.78647,0.00294
2299.74588,0.00289
2297.70529,0.00284
2295.66470,0.00293
2293.62411,0.00319
2291.58352,0.00348
2289.54293,0.00366
2287.50234,0.00378
2285.46175,0.00392
2283.42116,0.00409
2281.38056,0.00415
2279.33997,0.00409
2277.29938,0.00401
2275.25879,0.00391
2273.21820,0.00363
2271.17761,0.00330
2269.13702,0.00306
2267.09643,0.00268
2265.05584,0.00217
2263.01525,0.00191
2260.97466,0.00200
2258.93407,0.00207
2256.89347,0.00177
2254.85288,0.00155
2252.81229,0.00193
2250.77170,0.00239
2248.73111,0.00254
2246.69052,0.00235
2244.64993,0.00194
2242.60934,0.00185
2240.56875,0.00194
2238.52816,0.00180
2236.48757,0.00179
2234.44698,0.00202
2232.40638,0.00240
2230.36579,0.00302
2228.32520,0.00343
2226.28461,0.00325
2224.24402,0.00290
2222.20343,0.00294
2220.16284,0.00325
2218.12225,0.00329
2216.08166,0.00301
2214.04107,0.00272
2212.00048,0.00250
2209.95988,0.00244
2207.91929,0.00255
2205.87870,0.00289
2203.83811,0.00361
2201.79752,0.00429
2199.75693,0.00470
2197.71634,0.00525
2195.67575,0.00624
2193.63516,0.00757
2191.59457,0.00864
2189.55398,0.00860
2187.51339,0.00763
2185.47279,0.00643
2183.43220,0.00512
2181.39161,0.00416
2179.35102,0.00378
2177.31043,0.00372
2175.26984,0.00377
2173.22925,0.00351
2171.18866,0.00267
2169.14807,0.00136
2167.10748,0.00015
2165.06689,-0.00019
2163.02630,0.00033
2160.98570,0.00091
2158.94511,0.00089
2156.90452,0.00084
2154.86393,0.00142
2152.82334,0.00194
2150.78275,0.00176
2148.74216,0.00142
2146.70157,0.00152
2144.66098,0.00162
2142.62039,0.00151
2140.57980,0.00170
2138.53921,0.00194
2136.49861,0.00188
2134.45802,0.00194
2132.41743,0.00233
2130.37684,0.00286
2128.33625,0.00325
2126.29566,0.00333
2124.25507,0.00316
2122.21448,0.00281
2120.17389,0.00246
2118.13330,0.00238
2116.09271,0.00245
2114.05212,0.00239
2112.01152,0.00237
2109.97093,0.00265
2107.93034,0.00296
2105.88975,0.00302
2103.84916,0.00298
2101.80857,0.00285
2099.76798,0.00268
2097.72739,0.00255
2095.68680,0.00239
2093.64621,0.00227
2091.60562,0.00240
2089.56503,0.00276
2087.52443,0.00296
2085.48384,0.00278
2083.44325,0.00251
2081.40266,0.00249
2079.36207,0.00261
2077.32148,0.00246
2075.28089,0.00207
2073.24030,0.00167
2071.19971,0.00157
2069.15912,0.00163
2067.11853,0.00164
2065.07793,0.00186
2063.03734,0.00218
2060.99675,0.00234
2058.95616,0.00220
2056.91557,0.00172
2054.87498,0.00136
2052.83439,0.00157
2050.79380,0.00193
2048.75321,0.00191
2046.71262,0.00172
2044.67203,0.00162
2042.63144,0.00150
2040.59084,0.00154
2038.55025,0.00184
2036.50966,0.00204
2034.46907,0.00206
2032.42848,0.00222
2030.38789,0.00256
2028.34730,0.00280
2026.30671,0.00299
2024.26612,0.00310
2022.22553,0.00278
2020.18494,0.00196
2018.14435,0.00102
2016.10375,0.00086
2014.06316,0.00130
2012.02257,0.00108
2009.98198,0.00041
2007.94139,0.00035
2005.90080,0.00098
2003.86021,0.00155
2001.81962,0.00196
1999.77903,0.00201
1997.73844,0.00134
1995.69785,0.00097
1993.65726,0.00143
1991.61666,0.00179
1989.57607,0.00181
1987.53548,0.00153
1985.49489,0.00079
1983.45430,0.00014
1981.41371,0.00022
1979.37312,0.00079
1977.33253,0.00150
1975.29194,0.00223
1973.25135,0.00249
1971.21076,0.00231
1969.17017,0.00223
1967.12957,0.00199
1965.08898,0.00161
1963.04839,0.00167
1961.00780,0.00171
1958.96721,0.00123
1956.92662,0.00082
1954.88603,0.00090
1952.84544,0.00148
1950.80485,0.00230
1948.76426,0.00290
1946.72367,0.00320
1944.68308,0.00329
1942.64248,0.00316
1940.60189,0.00289
1938.56130,0.00240
1936.52071,0.00179
1934.48012,0.00154
1932.43953,0.00169
1930.39894,0.00177
1928.35835,0.00177
1926.31776,0.00178
1924.27717,0.00169
1922.23658,0.00166
1920.19598,0.00188
1918.15539,0.00235
1916.11480,0.00293
1914.07421,0.00315
1912.03362,0.00295
1909.99303,0.00287
1907.95244,0.00291
1905.91185,0.00258
1903.87126,0.00216
1901.83067,0.00201
1899.79008,0.00207
1897.74949,0.00221
1895.70889,0.00238
1893.66830,0.00245
1891.62771,0.00254
1889.58712,0.00278
1887.54653,0.00272
1885.50594,0.00241
1883.46535,0.00243
1881.42476,0.00262
1879.38417,0.00256
1877.34358,0.00238
1875.30299,0.00232
1873.26240,0.00231
1871.22180,0.00241
1869.18121,0.00268
1867.14062,0.00285
1865.10003,0.00276
1863.05944,0.00268
1861.01885,0.00279
1858.97826,0.00287
1856.93767,0.00274
1854.89708,0.00265
1852.85649,0.00268
1850.81590,0.00271
1848.77531,0.00279
1846.73471,0.00291
1844.69412,0.00300
1842.65353,0.00300
1840.61294,0.00294
1838.57235,0.00294
1836.53176,0.00304
1834.49117,0.00314
1832.45058,0.00315
1830.40999,0.00315
1828.36940,0.00316
1826.32881,0.00319
1824.28822,0.00314
1822.24762,0.00311
1820.20703,0.00317
1818.16644,0.00319
1816.12585,0.00328
1814.08526,0.00344
1812.04467,0.00340
1810.00408,0.00321
1807.96349,0.00307
1805.92290,0.00311
1803.88231,0.00326
1801.84172,0.00342
1799.80113,0.00351
1797.76053,0.00347
1795.71994,0.00332
1793.67935,0.00315
1791.63876,0.00313
1789.59817,0.00326
1787.55758,0.00335
1785.51699,0.00337
1783.47640,0.00338
1781.43581,0.00349
1779.39522,0.00367
1777.35463,0.00384
1775.31404,0.00402
1773.27344,0.00412
1771.23285,0.00403
1769.19226,0.00389
1767.15167,0.00380
1765.11108,0.00374
1763.07049,0.00370
1761.02990,0.00377
1758.98931,0.00391
1756.94872,0.00402
1754.90813,0.00406
1752.86754,0.00408
1750.82694,0.00406
1748.78635,0.00410
1746.74576,0.00426
1744.70517,0.00443
1742.66458,0.00452
1740.62399,0.00458
1738.58340,0.00468
1736.54281,0.00481
1734.50222,0.00498
1732.46163,0.00514
1730.42104,0.00525
1728.38045,0.00537
1726.33985,0.00551
1724.29926,0.00562
1722.25867,0.00566
1720.21808,0.00567
1718.17749,0.00569
1716.13690,0.00569
1714.09631,0.00569
1712.05572,0.00574
1710.01513,0.00585
1707.97454,0.00593
1705.93395,0.00595
1703.89336,0.00600
1701.85276,0.00609
1699.81217,0.00617
1697.77158,0.00622
1695.73099,0.00629
1693.69040,0.00641
1691.64981,0.00653
1689.60922,0.00664
1687.56863,0.00677
1685.52804,0.00692
1683.48745,0.00721
1681.44686,0.00747
1679.40627,0.00761
1677.36567,0.00774
1675.32508,0.00796
1673.28449,0.00818
1671.24390,0.00844
1669.20331,0.00882
1667.16272,0.00911
1665.12213,0.00930
1663.08154,0.00954
1661.04095,0.00968
1659.00036,0.00975
1656.95977,0.00991
1654.91918,0.01013
1652.87858,0.01023
1650.83799,0.01024
1648.79740,0.01036
1646.75681,0.01048
1644.71622,0.01052
1642.67563,0.01061
1640.63504,0.01077
1638.59445,0.01087
1636.55386,0.01086
1634.51327,0.01090
1632.47268,0.01105
1630.43209,0.01112
1628.39149,0.01107
1626.35090,0.01101
1624.31031,0.01098
1622.26972,0.01106
1620.22913,0.01118
1618.18854,0.01126
1616.14795,0.01128
1614.10736,0.01127
1612.06677,0.01135
1610.02618,0.01162
1607.98559,0.01190
1605.94499,0.01199
1603.90440,0.01197
1601.86381,0.01198
1599.82322,0.01199
1597.78263,0.01198
1595.74204,0.01197
1593.70145,0.01192
1591.66086,0.01181
1589.62027,0.01168
1587.57968,0.01154
1585.53909,0.01145
1583.49850,0.01142
1581.45790,0.01139
1579.41731,0.01134
1577.37672,0.01127
1575.33613,0.01116
1573.29554,0.01104
1571.25495,0.01089
1569.21436,0.01066
1567.17377,0.01052
1565.13318,0.01045
1563.09259,0.01037
1561.05200,0.01029
1559.01141,0.01022
1556.97081,0.01005
1554.93022,0.00984
1552.88963,0.00973
1550.84904,0.00972
1548.80845,0.00966
1546.76786,0.00949
1544.72727,0.00934
1542.68668,0.00930
1540.64609,0.00916
1538.60550,0.00890
1536.56491,0.00878
1534.52432,0.00876
1532.48372,0.00870
1530.44313,0.00865
1528.40254,0.00868
1526.36195,0.00872
1524.32136,0.00868
1522.28077,0.00858
1520.24018,0.00840
1518.19959,0.00821
1516.15900,0.00816
1514.11841,0.00825
1512.07782,0.00837
1510.03723,0.00846
1507.99663,0.00843
1505.95604,0.00819
1503.91545,0.00800
1501.87486,0.00797
1499.83427,0.00802
1497.79368,0.00813
1495.75309,0.00832
1493.71250,0.00855
1491.67191,0.00874
1489.63132,0.00884
1487.59073,0.00885
1485.55014,0.00892
1483.50954,0.00910
1481.46895,0.00933
1479.42836,0.00955
1477.38777,0.00973
1475.34718,0.00983
1473.30659,0.00991
1471.26600,0.01012
1469.22541,0.01037
1467.18482,0.01059
1465.14423,0.01080
1463.10364,0.01096
1461.06304,0.01112
1459.02245,0.01128
1456.98186,0.01139
1454.94127,0.01150
1452.90068,0.01169
1450.86009,0.01187
1448.81950,0.01197
1446.77891,0.01198
1444.73832,0.01198
1442.69773,0.01208
1440.65714,0.01228
1438.61655,0.01243
1436.57595,0.01249
1434.53536,0.01260
1432.49477,0.01279
1430.45418,0.01300
1428.41359,0.01322
1426.37300,0.01349
1424.33241,0.01379
1422.29182,0.01413
1420.25123,0.01451
1418.21064,0.01486
1416.17005,0.01510
1414.12946,0.01527
1412.08886,0.01547
1410.04827,0.01578
1408.00768,0.01619
1405.96709,0.01664
1403.92650,0.01701
1401.88591,0.01735
1399.84532,0.01786
1397.80473,0.01859
1395.76414,0.01949
1393.72355,0.02063
1391.68296,0.02177
1389.64237,0.02246
1387.60177,0.02235
1385.56118,0.02156
1383.52059,0.02071
1381.48000,0.02000
1379.43941,0.01946
1377.39882,0.01908
1375.35823,0.01881
1373.31764,0.01868
1371.27705,0.01880
1369.23646,0.01924
1367.19587,0.01986
1365.15528,0.02031
1363.11468,0.02036
1361.07409,0.02006
1359.03350,0.01966
1356.99291,0.01935
1354.95232,0.01918
1352.91173,0.01914
1350.87114,0.01921
1348.83055,0.01937
1346.78996,0.01954
1344.74937,0.01964
1342.70878,0.01971
1340.66819,0.01981
1338.62759,0.01988
1336.58700,0.01997
1334.54641,0.02007
1332.50582,0.02017
1330.46523,0.02029
1328.42464,0.02039
1326.38405,0.02041
1324.34346,0.02041
1322.30287,0.02049
1320.26228,0.02062
1318.22169,0.02078
1316.18109,0.02095
1314.14050,0.02107
1312.09991,0.02114
1310.05932,0.02120
1308.01873,0.02126
1305.97814,0.02129
1303.93755,0.02133
1301.89696,0.02148
1299.85637,0.02164
1297.81578,0.02174
1295.77519,0.02185
1293.73460,0.02203
1291.69400,0.02220
1289.65341,0.02236
1287.61282,0.02250
1285.57223,0.02268
1283.53164,0.02295
1281.49105,0.02325
1279.45046,0.02355
1277.40987,0.02390
1275.36928,0.02428
1273.32869,0.02460
1271.28810,0.02486
1269.24751,0.02516
1267.20691,0.02553
1265.16632,0.02594
1263.12573,0.02633
1261.08514,0.02674
1259.04455,0.02717
1257.00396,0.02761
1254.96337,0.02817
1252.92278,0.02884
1250.88219,0.02943
1248.84160,0.02995
1246.80101,0.03050
1244.76042,0.03109
1242.71982,0.03169
1240.67923,0.03238
1238.63864,0.03318
1236.59805,0.03406
1234.55746,0.03503
1232.51687,0.03619
1230.47628,0.03761
1228.43569,0.03928
1226.39510,0.04112
1224.35451,0.04321
1222.31392,0.04578
1220.27333,0.04898
1218.23273,0.05276
1216.19214,0.05689
1214.15155,0.06078
1212.11096,0.06388
1210.07037,0.06638
1208.02978,0.06921
1205.98919,0.07366
1203.94860,0.08151
1201.90801,0.09582
1199.86742,0.12191
1197.82683,0.16817
1195.78624,0.24457
1193.74564,0.35495
1191.70505,0.47412
1189.66446,0.52591
1187.62387,0.46472
1185.58328,0.35556
1183.54269,0.26122
1181.50210,0.19518
1179.46151,0.15210
1177.42092,0.12482
1175.38033,0.10776
1173.33974,0.09704
1171.29914,0.09013
1169.25855,0.08545
1167.21796,0.08229
1165.17737,0.08024
1163.13678,0.07882
1161.09619,0.07769
1159.05560,0.07686
1157.01501,0.07634
1154.97442,0.07598
1152.93383,0.07562
1150.89324,0.07531
1148.85265,0.07518
1146.81205,0.07523
1144.77146,0.07529
1142.73087,0.07536
1140.69028,0.07548
1138.64969,0.07566
1136.60910,0.07591
1134.56851,0.07621
1132.52792,0.07660
1130.48733,0.07706
1128.44674,0.07755
1126.40615,0.07810
1124.36556,0.07859
1122.32496,0.07901
1120.28437,0.07949
1118.24378,0.07995
1116.20319,0.08025
1114.16260,0.08051
1112.12201,0.08088
1110.08142,0.08132
1108.04083,0.08170
1106.00024,0.08200
1103.95965,0.08247
1101.91906,0.08323
1099.87847,0.08400
1097.83787,0.08453
1095.79728,0.08480
1093.75669,0.08474
1091.71610,0.08442
1089.67551,0.08398
1087.63492,0.08336
1085.59433,0.08271
1083.55374,0.08230
1081.51315,0.08212
1079.47256,0.08202
1077.43197,0.08184
1075.39138,0.08156
1073.35078,0.08124
1071.31019,0.08089
1069.26960,0.08039
1067.22901,0.07988
1065.18842,0.07954
1063.14783,0.07919
1061.10724,0.07872
1059.06665,0.07823
1057.02606,0.07777
1054.98547,0.07732
1052.94488,0.07688
1050.90429,0.07642
1048.86369,0.07592
1046.82310,0.07529
1044.78251,0.07464
1042.74192,0.07415
1040.70133,0.07370
1038.66074,0.07310
1036.62015,0.07242
1034.57956,0.07175
1032.53897,0.07116
1030.49838,0.07060
1028.45779,0.07004
1026.41719,0.06949
1024.37660,0.06894
1022.33601,0.06840
1020.29542,0.06788
1018.25483,0.06730
1016.21424,0.06667
1014.17365,0.06603
1012.13306,0.06548
1010.09247,0.06505
1008.05188,0.06468
1006.01129,0.06430
1003.97070,0.06392
1001.93010,0.06363
999.88951,0.06348
997.84892,0.06343
995.80833,0.06340
993.76774,0.06330
991.72715,0.06314
989.68656,0.06302
987.64597,0.06297
985.60538,0.06290
983.56479,0.06291
981.52420,0.06301
979.48361,0.06310
977.44301,0.06328
975.40242,0.06360
973.36183,0.06396
971.32124,0.06441
969.28065,0.06499
967.24006,0.06560
965.19947,0.06622
963.15888,0.06682
961.11829,0.06748
959.07770,0.06825
957.03711,0.06900
954.99652,0.06979
952.95592,0.07072
950.91533,0.07171
948.87474,0.07272
946.83415,0.07375
944.79356,0.07476
942.75297,0.07582
940.71238,0.07696
938.67179,0.07812
936.63120,0.07930
934.59061,0.08044
932.55002,0.08159
930.50943,0.08287
928.46883,0.08418
926.42824,0.08537
924.38765,0.08641
922.34706,0.08748
920.30647,0.08873
918.26588,0.09011
916.22529,0.09154
914.18470,0.09292
912.14411,0.09407
910.10352,0.09523
908.06293,0.09667
906.02234,0.09820
903.98174,0.09953
901.94115,0.10077
899.90056,0.10204
897.85997,0.10331
895.81938,0.10476
893.77879,0.10629
891.73820,0.10757
889.69761,0.10866
887.65702,0.10988
885.61643,0.11133
883.57584,0.11277
881.53524,0.11401
879.49465,0.11512
877.45406,0.11644
875.41347,0.11799
873.37288,0.11943
871.33229,0.12067
869.29170,0.12191
867.25111,0.12323
865.21052,0.12458
863.16993,0.12589
861.12934,0.12725
859.08875,0.12877
857.04815,0.13022
855.00756,0.13153
852.96697,0.13289
850.92638,0.13438
848.88579,0.13611
846.84520,0.13792
844.80461,0.13939
842.76402,0.14065
840.72343,0.14221
838.68284,0.14399
836.64225,0.14563
834.60166,0.14705
832.56106,0.14851
830.52047,0.15028
828.47988,0.15246
826.43929,0.15486
824.39870,0.15747
822.35811,0.16106
820.31752,0.16710
818.27693,0.17782
816.23634,0.19551
814.19575,0.21713
812.15516,0.23056
810.11457,0.22696
808.07397,0.21318
806.03338,0.20013
803.99279,0.19156
801.95220,0.18688
799.91161,0.18463
797.87102,0.18345
795.83043,0.18269
793.78984,0.18238
791.74925,0.18274
789.70866,0.18377
787.66807,0.18514
785.62748,0.18626
783.58688,0.18709
781.54629,0.18793
779.50570,0.18876
777.46511,0.18970
775.42452,0.19078
773.38393,0.19192
771.34334,0.19317
769.30275,0.19433
767.26216,0.19535
765.22157,0.19651
763.18098,0.19786
761.14039,0.19920
759.09979,0.20037
757.05920,0.20144
755.01861,0.20251
752.97802,0.20362
750.93743,0.20470
748.89684,0.20567
746.85625,0.20652
744.81566,0.20727
742.77507,0.20816
740.73448,0.20932
738.69389,0.21054
736.65329,0.21173
734.61270,0.21288
732.57211,0.21402
730.53152,0.21532
728.49093,0.21677
726.45034,0.21804
724.40975,0.21887
722.36916,0.21943
720.32857,0.22012
718.28798,0.22101
716.24739,0.22187
714.20680,0.22251
712.16620,0.22318
710.12561,0.22423
708.08502,0.22547
706.04443,0.22663
704.00384,0.22755
701.96325,0.22831
699.92266,0.22918
697.88207,0.23015
695.84148,0.23075
693.80089,0.23096
691.76030,0.23132
689.71971,0.23187
687.67911,0.23232
685.63852,0.23255
683.59793,0.23273
681.55734,0.23305
679.51675,0.23353
677.47616,0.23390
675.43557,0.23379
673.39498,0.23334
671.35439,0.23301
669.31380,0.23252
667.27321,0.23128
665.23262,0.22999
663.19202,0.22860
661.15143,0.22679
659.11084,0.22456
657.07025,0.22175
655.02966,0.21935
652.98907,0.21939
650.94848,0.22554
648.90789,0.24529
646.86730,0.28663
644.82671,0.35292
642.78612,0.44422
640.74553,0.56082
638.70493,0.70000
636.66434,0.84265
634.62375,0.94215
632.58316,0.95363
630.54257,0.88828
628.50198,0.79297
626.46139,0.70190
624.42080,0.62796
622.38021,0.57468
620.33962,0.53840
618.29903,0.51166
616.25844,0.48929
614.21784,0.47037
612.17725,0.45484
610.13666,0.44270
608.09607,0.43384
606.05548,0.42749
604.01489,0.42277
601.97430,0.41861
599.93371,0.41464
597.89312,0.41129
595.85253,0.40865
593.81194,0.40658
591.77135,0.40535
589.73075,0.40511
587.69016,0.40610
585.64957,0.40964
583.60898,0.41923
581.56839,0.43988
579.52780,0.46916
577.48721,0.49057
575.44662,0.49042
573.40603,0.47628
571.36544,0.46128
569.32485,0.44958
567.28425,0.44159
565.24366,0.43654
563.20307,0.43330
561.16248,0.43151
559.12189,0.43093
557.08130,0.43158
555.04071,0.43267
553.00012,0.43290
550.95953,0.43280
548.91894,0.43343
546.87835,0.43493
544.83776,0.43602
542.79716,0.43661
540.75657,0.43814
538.71598,0.44053
536.67539,0.44284
534.63480,0.44461
532.59421,0.44621
530.55362,0.44815
528.51303,0.45060
526.47244,0.45258
524.43185,0.45292
522.39126,0.45318
520.35067,0.45493
518.31007,0.45726
516.26948,0.45882
514.22889,0.45986
512.18830,0.46177
510.14771,0.46409
508.10712,0.46587
506.06653,0.46818
504.02594,0.47062
501.98535,0.47291
499.94476,0.47584
497.90417,0.47813
495.86358,0.47928
493.82298,0.48110
491.78239,0.48400
489.74180,0.48602
487.70121,0.48680
485.66062,0.48748
483.62003,0.48906
481.57944,0.49230
479.53885,0.49633
477.49826,0.49945
475.45767,0.50143
473.41708,0.50274
471.37649,0.50402
469.33589,0.50615
467.29530,0.50912
465.25471,0.51226
463.21412,0.51433
461.17353,0.51524
459.13294,0.51723
457.09235,0.52034
455.05176,0.52138
453.01117,0.52041
450.97058,0.51922
448.92999,0.51945
446.88940,0.52149
444.84880,0.52417
442.80821,0.52702
440.76762,0.52897
438.72703,0.52908
436.68644,0.52968
434.64585,0.53325
432.60526,0.53861
430.56467,0.54369
428.52408,0.54620
426.48349,0.54581
424.44290,0.54609
422.40230,0.54927
420.36171,0.55304
418.32112,0.55482
416.28053,0.55734
414.23994,0.56044
412.19935,0.56254
410.15876,0.56603
408.11817,0.57182
406.07758,0.57659
404.03699,0.57844
401.99640,0.57998
399.95581,0.58283
