3997.51747,0.00028
3995.47687,0.00057
3993.43628,0.00083
3991.39569,0.00088
3989.35510,0.00077
3987.31451,0.00060
3985.27392,0.00053
3983.23333,0.00057
3981.19274,0.00054
3979.15215,0.00047
3977.11156,0.00053
3975.07097,0.00071
3973.03037,0.00090
3970.98978,0.00100
3968.94919,0.00098
3966.90860,0.00092
3964.86801,0.00088
3962.82742,0.00086
3960.78683,0.00086
3958.74624,0.00092
3956.70565,0.00115
3954.66506,0.00143
3952.62447,0.00159
3950.58388,0.00165
3948.54328,0.00171
3946.50269,0.00177
3944.46210,0.00175
3942.42151,0.00163
3940.38092,0.00149
3938.34033,0.00141
3936.29974,0.00141
3934.25915,0.00135
3932.21856,0.00114
3930.17797,0.00091
3928.13738,0.00082
3926.09679,0.00084
3924.05619,0.00085
3922.01560,0.00089
3919.97501,0.00094
3917.93442,0.00095
3915.89383,0.00095
3913.85324,0.00087
3911.81265,0.00074
3909.77206,0.00066
3907.73147,0.00067
3905.69088,0.00069
3903.65029,0.00063
3901.60970,0.00068
3899.56910,0.00083
3897.52851,0.00087
3895.48792,0.00093
3893.44733,0.00105
3891.40674,0.00104
3889.36615,0.00087
3887.32556,0.00076
3885.28497,0.00076
3883.24438,0.00078
3881.20379,0.00095
3879.16320,0.00110
3877.12261,0.00097
3875.08201,0.00074
3873.04142,0.00076
3871.00083,0.00108
3868.96024,0.00130
3866.91965,0.00128
3864.87906,0.00120
3862.83847,0.00097
3860.79788,0.00061
3858.75729,0.00046
3856.71670,0.00069
3854.67611,0.00127
3852.63552,0.00169
3850.59492,0.00139
3848.55433,0.00094
3846.51374,0.00070
3844.47315,0.00074
3842.43256,0.00086
3840.39197,0.00084
3838.35138,0.00084
3836.31079,0.00097
3834.27020,0.00110
3832.22961,0.00103
3830.18902,0.00075
3828.14842,0.00059
3826.10783,0.00068
3824.06724,0.00090
3822.02665,0.00112
3819.98606,0.00111
3817.94547,0.00083
3815.90488,0.00066
3813.86429,0.00073
3811.82370,0.00082
3809.78311,0.00093
3807.74252,0.00108
3805.70193,0.00118
3803.66133,0.00119
3801.62074,0.00108
3799.58015,0.00085
3797.53956,0.00081
3795.49897,0.00093
3793.45838,0.00101
3791.41779,0.00113
3789.37720,0.00125
3787.33661,0.00124
3785.29602,0.00106
3783.25543,0.00085
3781.21484,0.00084
3779.17424,0.00098
3777.13365,0.00094
3775.09306,0.00075
3773.05247,0.00069
3771.01188,0.00083
3768.97129,0.00101
3766.93070,0.00110
3764.89011,0.00114
3762.84952,0.00116
3760.80893,0.00117
3758.76834,0.00121
3756.72775,0.00117
3754.68715,0.00098
3752.64656,0.00090
3750.60597,0.00109
3748.56538,0.00121
3746.52479,0.00128
3744.48420,0.00132
3742.44361,0.00110
3740.40302,0.00102
3738.36243,0.00134
3736.32184,0.00173
3734.28125,0.00174
3732.24066,0.00137
3730.20006,0.00088
3728.15947,0.00061
3726.11888,0.00076
3724.07829,0.00106
3722.03770,0.00123
3719.99711,0.00120
3717.95652,0.00111
3715.91593,0.00114
3713.87534,0.00116
3711.83475,0.00114
3709.79416,0.00115
3707.75357,0.00115
3705.71297,0.00119
3703.67238,0.00129
3701.63179,0.00149
3699.59120,0.00163
3697.55061,0.00150
3695.51002,0.00137
3693.46943,0.00145
3691.42884,0.00148
3689.38825,0.00140
3687.34766,0.00134
3685.30707,0.00122
3683.26647,0.00110
3681.22588,0.00116
3679.18529,0.00136
3677.14470,0.00150
3675.10411,0.00147
3673.06352,0.00136
3671.02293,0.00124
3668.98234,0.00106
3666.94175,0.00094
3664.90116,0.00096
3662.86057,0.00097
3660.81998,0.00092
3658.77938,0.00094
3656.73879,0.00097
3654.69820,0.00074
3652.65761,0.00052
3650.61702,0.00068
3648.57643,0.00096
3646.53584,0.00088
3644.49525,0.00082
3642.45466,0.00089
3640.41407,0.00088
3638.37348,0.00087
3636.33289,0.00103
3634.29229,0.00108
3632.25170,0.00096
3630.21111,0.00097
3628.17052,0.00112
3626.12993,0.00106
3624.08934,0.00094
3622.04875,0.00100
3620.00816,0.00107
3617.96757,0.00094
3615.92698,0.00087
3613.88639,0.00089
3611.84580,0.00092
3609.80520,0.00104
3607.76461,0.00098
3605.72402,0.00072
3603.68343,0.00067
3601.64284,0.00092
3599.60225,0.00110
3597.56166,0.00111
3595.52107,0.00110
3593.48048,0.00099
3591.43989,0.00084
3589.39930,0.00080
3587.35871,0.00079
3585.31811,0.00067
3583.27752,0.00058
3581.23693,0.00071
3579.19634,0.00088
3577.15575,0.00083
3575.11516,0.00075
3573.07457,0.00085
3571.03398,0.00102
3568.99339,0.00119
3566.95280,0.00122
3564.91221,0.00102
3562.87162,0.00078
3560.83102,0.00057
3558.79043,0.00047
3556.74984,0.00053
3554.70925,0.00058
3552.66866,0.00065
3550.62807,0.00074
3548.58748,0.00083
3546.54689,0.00100
3544.50630,0.00104
3542.46571,0.00083
3540.42512,0.00067
3538.38452,0.00079
3536.34393,0.00098
3534.30334,0.00100
3532.26275,0.00094
3530.22216,0.00078
3528.18157,0.00057
3526.14098,0.00067
3524.10039,0.00097
3522.05980,0.00117
3520.01921,0.00122
3517.97862,0.00113
3515.93803,0.00085
3513.89743,0.00057
3511.85684,0.00048
3509.81625,0.00053
3507.77566,0.00049
3505.73507,0.00044
3503.69448,0.00053
3501.65389,0.00065
3499.61330,0.00073
3497.57271,0.00085
3495.53212,0.00091
3493.49153,0.00081
3491.45094,0.00070
3489.41034,0.00064
3487.36975,0.00062
3485.32916,0.00067
3483.28857,0.00076
3481.24798,0.00085
3479.20739,0.00090
3477.16680,0.00086
3475.12621,0.00070
3473.08562,0.00045
3471.04503,0.00027
3469.00444,0.00037
3466.96385,0.00065
3464.92325,0.00089
3462.88266,0.00094
3460.84207,0.00093
3458.80148,0.00097
3456.76089,0.00085
3454.72030,0.00068
3452.67971,0.00077
3450.63912,0.00084
3448.59853,0.00078
3446.55794,0.00077
3444.51735,0.00076
3442.47676,0.00076
3440.43616,0.00077
3438.39557,0.00072
3436.35498,0.00063
3434.31439,0.00051
3432.27380,0.00049
3430.23321,0.00066
3428.19262,0.00075
3426.15203,0.00065
3424.11144,0.00056
3422.07085,0.00059
3420.03026,0.00071
3417.98967,0.00081
3415.94907,0.00077
3413.90848,0.00075
3411.86789,0.00082
3409.82730,0.00084
3407.78671,0.00071
3405.74612,0.00060
3403.70553,0.00071
3401.66494,0.00091
3399.62435,0.00095
3397.58376,0.00089
3395.54317,0.00094
3393.50257,0.00100
3391.46198,0.00092
3389.42139,0.00080
3387.38080,0.00075
3385.34021,0.00068
3383.29962,0.00062
3381.25903,0.00064
3379.21844,0.00071
3377.17785,0.00083
3375.13726,0.00098
3373.09667,0.00107
3371.05608,0.00101
3369.01548,0.00083
3366.97489,0.00071
3364.93430,0.00076
3362.89371,0.00095
3360.85312,0.00106
3358.81253,0.00098
3356.77194,0.00094
3354.73135,0.00104
3352.69076,0.00107
3350.65017,0.00095
3348.60958,0.00088
3346.56899,0.00090
3344.52839,0.00081
3342.48780,0.00059
3340.44721,0.00041
3338.40662,0.00033
3336.36603,0.00035
3334.32544,0.00049
3332.28485,0.00076
3330.24426,0.00097
3328.20367,0.00093
3326.16308,0.00076
3324.12249,0.00062
3322.08190,0.00060
3320.04130,0.00062
3318.00071,0.00061
3315.96012,0.00063
3313.91953,0.00068
3311.87894,0.00079
3309.83835,0.00094
3307.79776,0.00101
3305.75717,0.00094
3303.71658,0.00080
3301.67599,0.00075
3299.63540,0.00088
3297.59481,0.00112
3295.55421,0.00120
3293.51362,0.00108
3291.47303,0.00095
3289.43244,0.00098
3287.39185,0.00115
3285.35126,0.00127
3283.31067,0.00121
3281.27008,0.00105
3279.22949,0.00093
3277.18890,0.00088
3275.14831,0.00093
3273.10772,0.00102
3271.06712,0.00102
3269.02653,0.00099
3266.98594,0.00103
3264.94535,0.00106
3262.90476,0.00093
3260.86417,0.00075
3258.82358,0.00069
3256.78299,0.00081
3254.74240,0.00106
3252.70181,0.00114
3250.66122,0.00097
3248.62062,0.00077
3246.58003,0.00074
3244.53944,0.00091
3242.49885,0.00113
3240.45826,0.00120
3238.41767,0.00119
3236.37708,0.00113
3234.33649,0.00102
3232.29590,0.00095
3230.25531,0.00100
3228.21472,0.00110
3226.17413,0.00111
3224.13353,0.00104
3222.09294,0.00103
3220.05235,0.00114
3218.01176,0.00127
3215.97117,0.00127
3213.93058,0.00120
3211.88999,0.00121
3209.84940,0.00125
3207.80881,0.00123
3205.76822,0.00112
3203.72763,0.00102
3201.68704,0.00104
3199.64644,0.00114
3197.60585,0.00118
3195.56526,0.00118
3193.52467,0.00121
3191.48408,0.00124
3189.44349,0.00128
3187.40290,0.00135
3185.36231,0.00130
3183.32172,0.00124
3181.28113,0.00128
3179.24054,0.00122
3177.19995,0.00106
3175.15935,0.00100
3173.11876,0.00109
3171.07817,0.00130
3169.03758,0.00149
3166.99699,0.00151
3164.95640,0.00148
3162.91581,0.00151
3160.87522,0.00153
3158.83463,0.00150
3156.79404,0.00151
3154.75345,0.00154
3152.71286,0.00164
3150.67226,0.00172
3148.63167,0.00165
3146.59108,0.00159
3144.55049,0.00167
3142.50990,0.00166
3140.46931,0.00152
3138.42872,0.00146
3136.38813,0.00147
3134.34754,0.00166
3132.30695,0.00205
3130.26636,0.00224
3128.22577,0.00215
3126.18517,0.00212
3124.14458,0.00217
3122.10399,0.00210
3120.06340,0.00204
3118.02281,0.00211
3115.98222,0.00221
3113.94163,0.00224
3111.90104,0.00220
3109.86045,0.00223
3107.81986,0.00238
3105.77927,0.00248
3103.73868,0.00252
3101.69808,0.00256
3099.65749,0.00261
3097.61690,0.00266
3095.57631,0.00271
3093.53572,0.00275
3091.49513,0.00277
3089.45454,0.00276
3087.41395,0.00282
3085.37336,0.00300
3083.33277,0.00312
3081.29218,0.00320
3079.25158,0.00340
3077.21099,0.00368
3075.17040,0.00388
3073.12981,0.00409
3071.08922,0.00442
3069.04863,0.00482
3067.00804,0.00541
3064.96745,0.00641
3062.92686,0.00766
3060.88627,0.00890
3058.84568,0.01022
3056.80509,0.01153
3054.76449,0.01226
3052.72390,0.01203
3050.68331,0.01086
3048.64272,0.00908
3046.60213,0.00731
3044.56154,0.00598
3042.52095,0.00509
3040.48036,0.00439
3038.43977,0.00373
3036.39918,0.00315
3034.35859,0.00284
3032.31800,0.00271
3030.27740,0.00257
3028.23681,0.00246
3026.19622,0.00242
3024.15563,0.00245
3022.11504,0.00254
3020.07445,0.00264
3018.03386,0.00270
3015.99327,0.00269
3013.95268,0.00270
3011.91209,0.00275
3009.87150,0.00274
3007.83091,0.00275
3005.79031,0.00292
3003.74972,0.00316
3001.70913,0.00338
2999.66854,0.00361
2997.62795,0.00390
2995.58736,0.00434
2993.54677,0.00501
2991.50618,0.00580
2989.46559,0.00648
2987.42500,0.00686
2985.38441,0.00677
2983.34382,0.00624
2981.30322,0.00560
2979.26263,0.00497
2977.22204,0.00429
2975.18145,0.00371
2973.14086,0.00339
2971.10027,0.00319
2969.05968,0.00290
2967.01909,0.00256
2964.97850,0.00234
2962.93791,0.00223
2960.89732,0.00205
2958.85673,0.00184
2956.81613,0.00174
2954.77554,0.00171
2952.73495,0.00168
2950.69436,0.00164
2948.65377,0.00159
2946.61318,0.00150
2944.57259,0.00137
2942.53200,0.00130
2940.49141,0.00135
2938.45082,0.00134
2936.41023,0.00132
2934.36963,0.00138
2932.32904,0.00131
2930.28845,0.00116
2928.24786,0.00118
2926.20727,0.00125
2924.16668,0.00116
2922.12609,0.00103
2920.08550,0.00108
2918.04491,0.00122
2916.00432,0.00129
2913.96373,0.00132
2911.92314,0.00129
2909.88254,0.00125
2907.84195,0.00128
2905.80136,0.00133
2903.76077,0.00125
2901.72018,0.00113
2899.67959,0.00109
2897.63900,0.00113
2895.59841,0.00110
2893.55782,0.00102
2891.51723,0.00098
2889.47664,0.00096
2887.43605,0.00097
2885.39545,0.00097
2883.35486,0.00097
2881.31427,0.00101
2879.27368,0.00106
2877.23309,0.00104
2875.19250,0.00102
2873.15191,0.00104
2871.11132,0.00097
2869.07073,0.00083
2867.03014,0.00078
2864.98955,0.00082
2862.94896,0.00089
2860.90836,0.00093
2858.86777,0.00097
2856.82718,0.00099
2854.78659,0.00098
2852.74600,0.00099
2850.70541,0.00108
2848.66482,0.00112
2846.62423,0.00106
2844.58364,0.00108
2842.54305,0.00117
2840.50246,0.00126
2838.46187,0.00123
2836.42127,0.00108
2834.38068,0.00102
2832.34009,0.00111
2830.29950,0.00117
2828.25891,0.00117
2826.21832,0.00109
2824.17773,0.00093
2822.13714,0.00084
2820.09655,0.00084
2818.05596,0.00082
2816.01537,0.00080
2813.97478,0.00085
2811.93418,0.00088
2809.89359,0.00078
2807.85300,0.00067
2805.81241,0.00067
2803.77182,0.00066
2801.73123,0.00064
2799.69064,0.00071
2797.65005,0.00080
2795.60946,0.00086
2793.56887,0.00085
2791.52828,0.00081
2789.48768,0.00084
2787.44709,0.00087
2785.40650,0.00085
2783.36591,0.00081
2781.32532,0.00077
2779.28473,0.00077
2777.24414,0.00080
2775.20355,0.00081
2773.16296,0.00084
2771.12237,0.00088
2769.08178,0.00089
2767.04119,0.00089
2765.00059,0.00091
2762.96000,0.00088
2760.91941,0.00079
2758.87882,0.00070
2756.83823,0.00068
2754.79764,0.00076
2752.75705,0.00089
2750.71646,0.00096
2748.67587,0.00090
2746.63528,0.00083
2744.59469,0.00083
2742.55410,0.00079
2740.51350,0.00067
2738.47291,0.00056
2736.43232,0.00057
2734.39173,0.00063
2732.35114,0.00065
2730.31055,0.00064
2728.26996,0.00066
2726.22937,0.00074
2724.18878,0.00079
2722.14819,0.00078
2720.10760,0.00083
2718.06701,0.00093
2716.02641,0.00097
2713.98582,0.00088
2711.94523,0.00072
2709.90464,0.00068
2707.86405,0.00077
2705.82346,0.00085
2703.78287,0.00086
2701.74228,0.00085
2699.70169,0.00089
2697.66110,0.00097
2695.62051,0.00110
2693.57992,0.00133
2691.53932,0.00163
2689.49873,0.00188
2687.45814,0.00209
2685.41755,0.00215
2683.37696,0.00198
2681.33637,0.00167
2679.29578,0.00136
2677.25519,0.00116
2675.21460,0.00109
2673.17401,0.00102
2671.13342,0.00093
2669.09283,0.00092
2667.05223,0.00095
2665.01164,0.00096
2662.97105,0.00095
2660.93046,0.00097
2658.88987,0.00093
2656.84928,0.00079
2654.80869,0.00069
2652.76810,0.00069
2650.72751,0.00070
2648.68692,0.00067
2646.64633,0.00065
2644.60573,0.00066
2642.56514,0.00076
2640.52455,0.00096
2638.48396,0.00101
2636.44337,0.00081
2634.40278,0.00062
2632.36219,0.00066
2630.32160,0.00074
2628.28101,0.00070
2626.24042,0.00062
2624.19983,0.00060
2622.15924,0.00069
2620.11864,0.00082
2618.07805,0.00085
2616.03746,0.00080
2613.99687,0.00078
2611.95628,0.00085
2609.91569,0.00097
2607.87510,0.00096
2605.83451,0.00079
2603.79392,0.00055
2601.75333,0.00036
2599.71274,0.00038
2597.67215,0.00059
2595.63155,0.00073
2593.59096,0.00076
2591.55037,0.00078
2589.50978,0.00076
2587.46919,0.00075
2585.42860,0.00086
2583.38801,0.00106
2581.34742,0.00114
2579.30683,0.00100
2577.26624,0.00079
2575.22565,0.00072
2573.18506,0.00078
2571.14446,0.00079
2569.10387,0.00081
2567.06328,0.00096
2565.02269,0.00109
2562.98210,0.00108
2560.94151,0.00095
2558.90092,0.00079
2556.86033,0.00065
2554.81974,0.00061
2552.77915,0.00071
2550.73856,0.00080
2548.69797,0.00085
2546.65737,0.00084
2544.61678,0.00069
2542.57619,0.00059
2540.53560,0.00058
2538.49501,0.00054
2536.45442,0.00056
2534.41383,0.00068
2532.37324,0.00066
2530.33265,0.00042
2528.29206,0.00022
2526.25147,0.00023
2524.21088,0.00039
2522.17028,0.00062
2520.12969,0.00083
2518.08910,0.00102
2516.04851,0.00115
2514.00792,0.00110
2511.96733,0.00087
2509.92674,0.00075
2507.88615,0.00086
2505.84556,0.00090
2503.80497,0.00078
2501.76438,0.00061
2499.72378,0.00057
2497.68319,0.00068
2495.64260,0.00073
2493.60201,0.00068
2491.56142,0.00070
2489.52083,0.00085
2487.48024,0.00099
2485.43965,0.00094
2483.39906,0.00079
2481.35847,0.00069
2479.31788,0.00055
2477.27729,0.00047
2475.23669,0.00060
2473.19610,0.00085
2471.15551,0.00092
2469.11492,0.00075
2467.07433,0.00059
2465.03374,0.00066
2462.99315,0.00075
2460.95256,0.00068
2458.91197,0.00073
2456.87138,0.00087
2454.83079,0.00091
2452.79020,0.00095
2450.74960,0.00098
2448.70901,0.00097
2446.66842,0.00104
2444.62783,0.00108
2442.58724,0.00108
2440.54665,0.00118
2438.50606,0.00116
2436.46547,0.00092
2434.42488,0.00077
2432.38429,0.00083
2430.34370,0.00091
2428.30311,0.00095
2426.26251,0.00100
2424.22192,0.00108
2422.18133,0.00114
2420.14074,0.00113
2418.10015,0.00122
2416.05956,0.00145
2414.01897,0.00167
2411.97838,0.00177
2409.93779,0.00176
2407.89720,0.00172
2405.85661,0.00163
2403.81602,0.00146
2401.77542,0.00131
2399.73483,0.00121
2397.69424,0.00107
2395.65365,0.00099
2393.61306,0.00096
2391.57247,0.00086
2389.53188,0.00083
2387.49129,0.00094
2385.45070,0.00101
2383.41011,0.00109
2381.36952,0.00118
2379.32893,0.00118
2377.28833,0.00117
2375.24774,0.00125
2373.20715,0.00119
2371.16656,0.00103
2369.12597,0.00107
2367.08538,0.00117
2365.04479,0.00131
2363.00420,0.00143
2360.96361,0.00131
2358.92302,0.00111
2356.88243,0.00098
2354.84183,0.00097
2352.80124,0.00115
2350.76065,0.00138
2348.72006,0.00150
2346.67947,0.00153
2344.63888,0.00144
2342.59829,0.00147
2340.55770,0.00179
2338.51711,0.00197
2336.47652,0.00187
2334.43593,0.00185
2332.39534,0.00192
2330.35474,0.00182
2328.31415,0.00167
2326.27356,0.00179
2324.23297,0.00202
2322.19238,0.00221
2320.15179,0.00232
2318.11120,0.00234
2316.07061,0.00261
2314.03002,0.00310
2311.98943,0.00359
2309.94884,0.00414
2307.90825,0.00475
2305.86765,0.00510
2303.82706,0.00490
2301.78647,0.00429
2299.74588,0.00365
2297.70529,0.00309
2295.66470,0.00264
2293.62411,0.00243
2291.58352,0.00236
2289.54293,0.00226
2287.50234,0.00205
2285.46175,0.00179
2283.42116,0.00169
2281.38056,0.00169
2279.33997,0.00174
2277.29938,0.00176
2275.25879,0.00151
2273.21820,0.00119
2271.17761,0.00114
2269.13702,0.00118
2267.09643,0.00094
2265.05584,0.00061
2263.01525,0.00055
2260.97466,0.00066
2258.93407,0.00073
2256.89347,0.00070
2254.85288,0.00076
2252.81229,0.00115
2250.77170,0.00166
2248.73111,0.00198
2246.69052,0.00191
2244.64993,0.00152
2242.60934,0.00109
2240.56875,0.00072
2238.52816,0.00038
2236.48757,0.00027
2234.44698,0.00031
2232.40638,0.00057
2230.36579,0.00104
2228.32520,0.00119
2226.28461,0.00101
2224.24402,0.00105
2222.20343,0.00136
2220.16284,0.00169
2218.12225,0.00188
2216.08166,0.00170
2214.04107,0.00118
2212.00048,0.00079
2209.95988,0.00099
2207.91929,0.00138
2205.87870,0.00142
2203.83811,0.00146
2201.79752,0.00173
2199.75693,0.00192
2197.71634,0.00187
2195.67575,0.00173
2193.63516,0.00181
2191.59457,0.00195
2189.55398,0.00167
2187.51339,0.00130
2185.47279,0.00135
2183.43220,0.00152
2181.39161,0.00165
2179.35102,0.00166
2177.31043,0.00138
2175.26984,0.00081
2173.22925,0.00022
2171.18866,0.00007
2169.14807,0.00044
2167.10748,0.00070
2165.06689,0.00041
2163.02630,0.00058
2160.98570,0.00152
2158.94511,0.00221
2156.90452,0.00238
2154.86393,0.00217
2152.82334,0.00171
2150.78275,0.00106
2148.74216,0.00070
2146.70157,0.00089
2144.66098,0.00122
2142.62039,0.00142
2140.57980,0.00139
2138.53921,0.00127
2136.49861,0.00136
2134.45802,0.00149
2132.41743,0.00151
2130.37684,0.00159
2128.33625,0.00179
2126.29566,0.00192
2124.25507,0.00174
2122.21448,0.00141
2120.17389,0.00119
2118.13330,0.00108
2116.09271,0.00111
2114.05212,0.00122
2112.01152,0.00138
2109.97093,0.00157
2107.93034,0.00149
2105.88975,0.00123
2103.84916,0.00120
2101.80857,0.00123
2099.76798,0.00116
2097.72739,0.00126
2095.68680,0.00153
2093.64621,0.00170
2091.60562,0.00169
2089.56503,0.00160
2087.52443,0.00149
2085.48384,0.00140
2083.44325,0.00127
2081.40266,0.00122
2079.36207,0.00153
2077.32148,0.00173
2075.28089,0.00145
2073.24030,0.00110
2071.19971,0.00084
2069.15912,0.00049
2067.11853,0.00044
2065.07793,0.00096
2063.03734,0.00152
2060.99675,0.00165
2058.95616,0.00144
2056.91557,0.00104
2054.87498,0.00063
2052.83439,0.00061
2050.79380,0.00113
2048.75321,0.00175
2046.71262,0.00198
2044.67203,0.00181
2042.63144,0.00162
2040.59084,0.00177
2038.55025,0.00176
2036.50966,0.00133
2034.46907,0.00160
2032.42848,0.00254
2030.38789,0.00260
2028.34730,0.00231
2026.30671,0.00298
2024.26612,0.00380
2022.22553,0.00343
2020.18494,0.00184
2018.14435,0.00060
2016.10375,0.00084
2014.06316,0.00151
2012.02257,0.00132
2009.98198,0.00049
2007.94139,0.00005
2005.90080,0.00000
2003.86021,-0.00024
2001.81962,-0.00015
1999.77903,0.00063
1997.73844,0.00137
1995.69785,0.00159
1993.65726,0.00166
1991.61666,0.00196
1989.57607,0.00205
1987.53548,0.00161
1985.49489,0.00127
1983.45430,0.00107
1981.41371,0.00093
1979.37312,0.00127
1977.33253,0.00178
1975.29194,0.00174
1973.25135,0.00099
1971.21076,0.00021
1969.17017,-0.00001
1967.12957,0.00021
1965.08898,0.00049
1963.04839,0.00055
1961.00780,0.00031
1958.96721,0.00038
1956.92662,0.00097
1954.88603,0.00131
1952.84544,0.00130
1950.80485,0.00120
1948.76426,0.00104
1946.72367,0.00117
1944.68308,0.00160
1942.64248,0.00168
1940.60189,0.00133
1938.56130,0.00098
1936.52071,0.00088
1934.48012,0.00098
1932.43953,0.00113
1930.39894,0.00140
1928.35835,0.00151
1926.31776,0.00111
1924.27717,0.00056
1922.23658,0.00048
1920.19598,0.00085
1918.15539,0.00128
1916.11480,0.00157
1914.07421,0.00147
1912.03362,0.00115
1909.99303,0.00099
1907.95244,0.00084
1905.91185,0.00067
1903.87126,0.00084
1901.83067,0.00115
1899.79008,0.00101
1897.74949,0.00069
1895.70889,0.00074
1893.66830,0.00104
1891.62771,0.00135
1889.58712,0.00165
1887.54653,0.00156
1885.50594,0.00114
1883.46535,0.00096
1881.42476,0.00099
1879.38417,0.00084
1877.34358,0.00057
1875.30299,0.00051
1873.26240,0.00070
1871.22180,0.00105
1869.18121,0.00134
1867.14062,0.00117
1865.10003,0.00083
1863.05944,0.00075
1861.01885,0.00091
1858.97826,0.00115
1856.93767,0.00125
1854.89708,0.00109
1852.85649,0.00084
1850.81590,0.00067
1848.77531,0.00075
1846.73471,0.00109
1844.69412,0.00132
1842.65353,0.00120
1840.61294,0.00103
1838.57235,0.00106
1836.53176,0.00118
1834.49117,0.00120
1832.45058,0.00127
1830.40999,0.00134
1828.36940,0.00127
1826.32881,0.00116
1824.28822,0.00106
1822.24762,0.00100
1820.20703,0.00098
1818.16644,0.00093
1816.12585,0.00096
1814.08526,0.00109
1812.04467,0.00114
1810.00408,0.00103
1807.96349,0.00096
1805.92290,0.00104
1803.88231,0.00111
1801.84172,0.00108
1799.80113,0.00111
1797.76053,0.00125
1795.71994,0.00137
1793.67935,0.00142
1791.63876,0.00134
1789.59817,0.00112
1787.55758,0.00097
1785.51699,0.00094
1783.47640,0.00091
1781.43581,0.00090
1779.39522,0.00091
1777.35463,0.00089
1775.31404,0.00093
1773.27344,0.00107
1771.23285,0.00120
1769.19226,0.00118
1767.15167,0.00104
1765.11108,0.00090
1763.07049,0.00087
1761.02990,0.00094
1758.98931,0.00094
1756.94872,0.00093
1754.90813,0.00100
1752.86754,0.00117
1750.82694,0.00132
1748.78635,0.00128
1746.74576,0.00117
1744.70517,0.00110
1742.66458,0.00104
1740.62399,0.00100
1738.58340,0.00096
1736.54281,0.00101
1734.50222,0.00127
1732.46163,0.00137
1730.42104,0.00118
1728.38045,0.00098
1726.33985,0.00091
1724.29926,0.00093
1722.25867,0.00098
1720.21808,0.00116
1718.17749,0.00147
1716.13690,0.00152
1714.09631,0.00131
1712.05572,0.00124
1710.01513,0.00133
1707.97454,0.00148
1705.93395,0.00166
1703.89336,0.00180
1701.85276,0.00189
1699.81217,0.00185
1697.77158,0.00168
1695.73099,0.00156
1693.69040,0.00141
1691.64981,0.00130
1689.60922,0.00129
1687.56863,0.00133
1685.52804,0.00145
1683.48745,0.00159
1681.44686,0.00153
1679.40627,0.00143
1677.36567,0.00141
1675.32508,0.00147
1673.28449,0.00153
1671.24390,0.00160
1669.20331,0.00170
1667.16272,0.00167
1665.12213,0.00166
1663.08154,0.00176
1661.04095,0.00170
1659.00036,0.00154
1656.95977,0.00158
1654.91918,0.00184
1652.87858,0.00200
1650.83799,0.00190
1648.79740,0.00186
1646.75681,0.00183
1644.71622,0.00172
1642.67563,0.00165
1640.63504,0.00168
1638.59445,0.00184
1636.55386,0.00203
1634.51327,0.00200
1632.47268,0.00187
1630.43209,0.00183
1628.39149,0.00178
1626.35090,0.00173
1624.31031,0.00172
1622.26972,0.00174
1620.22913,0.00176
1618.18854,0.00181
1616.14795,0.00189
1614.10736,0.00196
1612.06677,0.00207
1610.02618,0.00223
1607.98559,0.00238
1605.94499,0.00246
1603.90440,0.00250
1601.86381,0.00252
1599.82322,0.00249
1597.78263,0.00243
1595.74204,0.00232
1593.70145,0.00217
1591.66086,0.00203
1589.62027,0.00197
1587.57968,0.00198
1585.53909,0.00202
1583.49850,0.00201
1581.45790,0.00197
1579.41731,0.00200
1577.37672,0.00215
1575.33613,0.00221
1573.29554,0.00213
1571.25495,0.00208
1569.21436,0.00201
1567.17377,0.00193
1565.13318,0.00191
1563.09259,0.00196
1561.05200,0.00216
1559.01141,0.00251
1556.97081,0.00262
1554.93022,0.00270
1552.88963,0.00289
1550.84904,0.00300
1548.80845,0.00292
1546.76786,0.00277
1544.72727,0.00276
1542.68668,0.00285
1540.64609,0.00279
1538.60550,0.00257
1536.56491,0.00246
1534.52432,0.00239
1532.48372,0.00222
1530.44313,0.00215
1528.40254,0.00224
1526.36195,0.00228
1524.32136,0.00228
1522.28077,0.00242
1520.24018,0.00251
1518.19959,0.00239
1516.15900,0.00228
1514.11841,0.00228
1512.07782,0.00239
1510.03723,0.00258
1507.99663,0.00271
1505.95604,0.00253
1503.91545,0.00223
1501.87486,0.00211
1499.83427,0.00219
1497.79368,0.00233
1495.75309,0.00241
1493.71250,0.00254
1491.67191,0.00279
1489.63132,0.00301
1487.59073,0.00297
1485.55014,0.00283
1483.50954,0.00281
1481.46895,0.00291
1479.42836,0.00302
1477.38777,0.00315
1475.34718,0.00333
1473.30659,0.00345
1471.26600,0.00347
1469.22541,0.00350
1467.18482,0.00365
1465.14423,0.00384
1463.10364,0.00402
1461.06304,0.00426
1459.02245,0.00465
1456.98186,0.00518
1454.94127,0.00567
1452.90068,0.00609
1450.86009,0.00654
1448.81950,0.00706
1446.77891,0.00760
1444.73832,0.00806
1442.69773,0.00856
1440.65714,0.00911
1438.61655,0.00952
1436.57595,0.00971
1434.53536,0.00977
1432.49477,0.00988
1430.45418,0.01028
1428.41359,0.01124
1426.37300,0.01281
1424.33241,0.01481
1422.29182,0.01621
1420.25123,0.01580
1418.21064,0.01348
1416.17005,0.01099
1414.12946,0.00927
1412.08886,0.00805
1410.04827,0.00718
1408.00768,0.00654
1405.96709,0.00607
1403.92650,0.00566
1401.88591,0.00533
1399.84532,0.00508
1397.80473,0.00481
1395.76414,0.00448
1393.72355,0.00418
1391.68296,0.00403
1389.64237,0.00401
1387.60177,0.00400
1385.56118,0.00389
1383.52059,0.00374
1381.48000,0.00368
1379.43941,0.00368
1377.39882,0.00369
1375.35823,0.00371
1373.31764,0.00368
1371.27705,0.00364
1369.23646,0.00363
1367.19587,0.00359
1365.15528,0.00354
1363.11468,0.00361
1361.07409,0.00369
1359.03350,0.00365
1356.99291,0.00355
1354.95232,0.00350
1352.91173,0.00353
1350.87114,0.00360
1348.83055,0.00373
1346.78996,0.00387
1344.74937,0.00395
1342.70878,0.00399
1340.66819,0.00407
1338.62759,0.00418
1336.58700,0.00421
1334.54641,0.00418
1332.50582,0.00420
1330.46523,0.00431
1328.42464,0.00441
1326.38405,0.00450
1324.34346,0.00461
1322.30287,0.00474
1320.26228,0.00493
1318.22169,0.00520
1316.18109,0.00547
1314.14050,0.00570
1312.09991,0.00593
1310.05932,0.00611
1308.01873,0.00629
1305.97814,0.00653
1303.93755,0.00683
1301.89696,0.00718
1299.85637,0.00755
1297.81578,0.00793
1295.77519,0.00841
1293.73460,0.00908
1291.69400,0.00991
1289.65341,0.01086
1287.61282,0.01195
1285.57223,0.01337
1283.53164,0.01531
1281.49105,0.01804
1279.45046,0.02197
1277.40987,0.02794
1275.36928,0.03762
1273.32869,0.05447
1271.28810,0.08538
1269.24751,0.14037
1267.20691,0.22155
1265.16632,0.29406
1263.12573,0.29165
1261.08514,0.21910
1259.04455,0.14269
1257.00396,0.09196
1254.96337,0.06262
1252.92278,0.04531
1250.88219,0.03442
1248.84160,0.02731
1246.80101,0.02261
1244.76042,0.01940
1242.71982,0.01709
1240.67923,0.01534
1238.63864,0.01394
1236.59805,0.01285
1234.55746,0.01210
1232.51687,0.01153
1230.47628,0.01099
1228.43569,0.01048
1226.39510,0.01004
1224.35451,0.00971
1222.31392,0.00954
1220.27333,0.00939
1218.23273,0.00922
1216.19214,0.00913
1214.15155,0.00907
1212.11096,0.00895
1210.07037,0.00885
1208.02978,0.00888
1205.98919,0.00894
1203.94860,0.00894
1201.90801,0.00893
1199.86742,0.00897
1197.82683,0.00907
1195.78624,0.00917
1193.74564,0.00919
1191.70505,0.00922
1189.66446,0.00932
1187.62387,0.00945
1185.58328,0.00955
1183.54269,0.00966
1181.50210,0.00978
1179.46151,0.00992
1177.42092,0.01004
1175.38033,0.01020
1173.33974,0.01041
1171.29914,0.01063
1169.25855,0.01088
1167.21796,0.01116
1165.17737,0.01146
1163.13678,0.01177
1161.09619,0.01204
1159.05560,0.01225
1157.01501,0.01248
1154.97442,0.01266
1152.93383,0.01264
1150.89324,0.01248
1148.85265,0.01234
1146.81205,0.01227
1144.77146,0.01222
1142.73087,0.01225
1140.69028,0.01228
1138.64969,0.01227
1136.60910,0.01233
1134.56851,0.01239
1132.52792,0.01239
1130.48733,0.01239
1128.44674,0.01246
1126.40615,0.01263
1124.36556,0.01280
1122.32496,0.01286
1120.28437,0.01285
1118.24378,0.01285
1116.20319,0.01288
1114.16260,0.01291
1112.12201,0.01294
1110.08142,0.01298
1108.04083,0.01295
1106.00024,0.01292
1103.95965,0.01304
1101.91906,0.01317
1099.87847,0.01318
1097.83787,0.01318
1095.79728,0.01327
1093.75669,0.01334
1091.71610,0.01332
1089.67551,0.01323
1087.63492,0.01311
1085.59433,0.01313
1083.55374,0.01329
1081.51315,0.01333
1079.47256,0.01326
1077.43197,0.01323
1075.39138,0.01322
1073.35078,0.01332
1071.31019,0.01348
1069.26960,0.01344
1067.22901,0.01325
1065.18842,0.01322
1063.14783,0.01331
1061.10724,0.01328
1059.06665,0.01309
1057.02606,0.01297
1054.98547,0.01300
1052.94488,0.01305
1050.90429,0.01304
1048.86369,0.01297
1046.82310,0.01291
1044.78251,0.01289
1042.74192,0.01292
1040.70133,0.01297
1038.66074,0.01297
1036.62015,0.01285
1034.57956,0.01264
1032.53897,0.01251
1030.49838,0.01254
1028.45779,0.01259
1026.41719,0.01264
1024.37660,0.01266
1022.33601,0.01260
1020.29542,0.01248
1018.25483,0.01232
1016.21424,0.01213
1014.17365,0.01196
1012.13306,0.01191
1010.09247,0.01202
1008.05188,0.01220
1006.01129,0.01228
1003.97070,0.01219
1001.93010,0.01206
999.88951,0.01198
997.84892,0.01202
995.80833,0.01219
993.76774,0.01237
991.72715,0.01251
989.68656,0.01264
987.64597,0.01268
985.60538,0.01258
983.56479,0.01252
981.52420,0.01260
979.48361,0.01263
977.44301,0.01258
975.40242,0.01258
973.36183,0.01261
971.32124,0.01267
969.28065,0.01282
967.24006,0.01296
965.19947,0.01308
963.15888,0.01319
961.11829,0.01336
959.07770,0.01365
957.03711,0.01398
954.99652,0.01433
952.95592,0.01460
950.91533,0.01467
948.87474,0.01481
946.83415,0.01516
944.79356,0.01552
942.75297,0.01579
940.71238,0.01607
938.67179,0.01642
936.63120,0.01679
934.59061,0.01712
932.55002,0.01753
930.50943,0.01798
928.46883,0.01827
926.42824,0.01844
924.38765,0.01873
922.34706,0.01918
920.30647,0.01969
918.26588,0.02021
916.22529,0.02081
914.18470,0.02145
912.14411,0.02215
910.10352,0.02306
908.06293,0.02429
906.02234,0.02580
903.98174,0.02777
901.94115,0.03088
899.90056,0.03550
897.85997,0.04041
895.81938,0.04287
893.77879,0.04126
891.73820,0.03715
889.69761,0.03313
887.65702,0.03040
885.61643,0.02891
883.57584,0.02811
881.53524,0.02755
879.49465,0.02722
877.45406,0.02716
875.41347,0.02722
873.37288,0.02743
871.33229,0.02771
869.29170,0.02792
867.25111,0.02808
865.21052,0.02819
863.16993,0.02830
861.12934,0.02858
859.08875,0.02897
857.04815,0.02933
855.00756,0.02959
852.96697,0.02977
850.92638,0.02997
848.88579,0.03024
846.84520,0.03057
844.80461,0.03099
842.76402,0.03146
840.72343,0.03191
838.68284,0.03227
836.64225,0.03263
834.60166,0.03298
832.56106,0.03318
830.52047,0.03333
828.47988,0.03364
826.43929,0.03407
824.39870,0.03459
822.35811,0.03491
820.31752,0.03489
818.27693,0.03501
816.23634,0.03555
814.19575,0.03608
812.15516,0.03636
810.11457,0.03675
808.07397,0.03745
806.03338,0.03815
803.99279,0.03859
801.95220,0.03891
799.91161,0.03942
797.87102,0.03999
795.83043,0.04031
793.78984,0.04060
791.74925,0.04118
789.70866,0.04200
787.66807,0.04288
785.62748,0.04367
783.58688,0.04450
781.54629,0.04542
779.50570,0.04645
777.46511,0.04771
775.42452,0.04924
773.38393,0.05099
771.34334,0.05299
769.30275,0.05531
767.26216,0.05821
765.22157,0.06212
763.18098,0.06737
761.14039,0.07442
759.09979,0.08417
757.05920,0.09794
755.01861,0.11726
752.97802,0.14401
750.93743,0.18005
748.89684,0.22680
746.85625,0.28493
744.81566,0.35556
742.77507,0.44130
740.73448,0.54447
738.69389,0.66404
736.65329,0.79376
734.61270,0.91767
732.57211,1.00255
730.53152,1.00541
728.49093,0.91980
726.45034,0.79057
724.40975,0.66403
722.36916,0.56069
720.32857,0.48217
718.28798,0.42522
716.24739,0.38640
714.20680,0.36361
712.16620,0.35764
710.12561,0.37043
708.08502,0.39980
706.04443,0.43442
704.00384,0.45421
701.96325,0.44320
699.92266,0.40404
697.88207,0.35294
695.84148,0.30475
693.80089,0.26610
691.76030,0.23741
689.71971,0.21633
687.67911,0.20062
685.63852,0.18859
683.59793,0.17888
681.55734,0.17093
679.51675,0.16466
677.47616,0.15969
675.43557,0.15549
673.39498,0.15190
671.35439,0.14903
669.31380,0.14627
667.27321,0.14323
665.23262,0.14132
663.19202,0.14000
661.15143,0.13861
659.11084,0.13761
657.07025,0.13702
655.02966,0.13632
652.98907,0.13536
650.94848,0.13439
648.90789,0.13373
646.86730,0.13344
644.82671,0.13322
642.78612,0.13290
640.74553,0.13271
638.70493,0.13281
636.66434,0.13304
634.62375,0.13312
632.58316,0.13304
630.54257,0.13289
628.50198,0.13261
626.46139,0.13271
624.42080,0.13348
622.38021,0.13421
620.33962,0.13441
618.29903,0.13454
616.25844,0.13516
614.21784,0.13605
612.17725,0.13660
610.13666,0.13706
608.09607,0.13771
606.05548,0.13826
604.01489,0.13881
601.97430,0.13961
599.93371,0.14035
597.89312,0.14080
595.85253,0.14112
593.81194,0.14146
591.77135,0.14195
589.73075,0.14279
587.69016,0.14387
585.64957,0.14484
583.60898,0.14558
581.56839,0.14605
579.52780,0.14626
577.48721,0.14648
575.44662,0.14710
573.40603,0.14831
571.36544,0.14978
569.32485,0.15109
567.28425,0.15203
565.24366,0.15266
563.20307,0.15336
561.16248,0.15421
559.12189,0.15517
557.08130,0.15604
555.04071,0.15652
553.00012,0.15705
550.95953,0.15815
548.91894,0.15952
546.87835,0.16067
544.83776,0.16147
542.79716,0.16230
540.75657,0.16350
538.71598,0.16486
536.67539,0.16573
534.63480,0.16635
532.59421,0.16705
530.55362,0.16728
528.51303,0.16759
526.47244,0.16902
524.43185,0.17072
522.39126,0.17144
520.35067,0.17166
518.31007,0.17245
516.26948,0.17396
514.22889,0.17549
512.18830,0.17694
510.14771,0.17807
508.10712,0.17874
506.06653,0.18031
504.02594,0.18242
501.98535,0.18329
499.94476,0.18352
497.90417,0.18412
495.86358,0.18489
493.82298,0.18580
491.78239,0.18720
489.74180,0.18933
487.70121,0.19171
485.66062,0.19289
483.62003,0.19295
481.57944,0.19360
479.53885,0.19530
477.49826,0.19745
475.45767,0.19945
473.41708,0.20105
471.37649,0.20213
469.33589,0.20330
467.29530,0.20526
465.25471,0.20626
463.21412,0.20575
461.17353,0.20625
459.13294,0.20810
457.09235,0.20961
455.05176,0.21077
453.01117,0.21210
450.97058,0.21345
448.92999,0.21463
446.88940,0.21514
444.84880,0.21530
442.80821,0.21640
440.76762,0.21850
438.72703,0.22096
436.68644,0.22366
434.64585,0.22560
432.60526,0.22618
430.56467,0.22652
428.52408,0.22731
426.48349,0.22848
424.44290,0.23027
422.40230,0.23240
420.36171,0.23399
418.32112,0.23487
416.28053,0.23635
414.23994,0.23970
412.19935,0.24432
410.15876,0.24789
408.11817,0.24861
406.07758,0.24754
404.03699,0.24822
401.99640,0.25242
399.95581,0.25782
