3997.51747,0.00023
3995.47687,0.00035
3993.43628,0.00044
3991.39569,0.00055
3989.35510,0.00062
3987.31451,0.00049
3985.27392,0.00033
3983.23333,0.00034
3981.19274,0.00032
3979.15215,0.00029
3977.11156,0.00048
3975.07097,0.00069
3973.03037,0.00071
3970.98978,0.00064
3968.94919,0.00058
3966.90860,0.00056
3964.86801,0.00057
3962.82742,0.00055
3960.78683,0.00055
3958.74624,0.00058
3956.70565,0.00063
3954.66506,0.00072
3952.62447,0.00069
3950.58388,0.00053
3948.54328,0.00046
3946.50269,0.00060
3944.46210,0.00077
3942.42151,0.00082
3940.38092,0.00073
3938.34033,0.00068
3936.29974,0.00076
3934.25915,0.00082
3932.21856,0.00080
3930.17797,0.00071
3928.13738,0.00062
3926.09679,0.00061
3924.05619,0.00055
3922.01560,0.00042
3919.97501,0.00036
3917.93442,0.00040
3915.89383,0.00040
3913.85324,0.00026
3911.81265,0.00018
3909.77206,0.00023
3907.73147,0.00040
3905.69088,0.00067
3903.65029,0.00090
3901.60970,0.00106
3899.56910,0.00106
3897.52851,0.00077
3895.48792,0.00050
3893.44733,0.00051
3891.40674,0.00059
3889.36615,0.00059
3887.32556,0.00060
3885.28497,0.00066
3883.24438,0.00081
3881.20379,0.00094
3879.16320,0.00082
3877.12261,0.00057
3875.08201,0.00048
3873.04142,0.00068
3871.00083,0.00098
3868.96024,0.00100
3866.91965,0.00078
3864.87906,0.00071
3862.83847,0.00075
3860.79788,0.00064
3858.75729,0.00044
3856.71670,0.00048
3854.67611,0.00087
3852.63552,0.00116
3850.59492,0.00084
3848.55433,0.00045
3846.51374,0.00031
3844.47315,0.00042
3842.43256,0.00063
3840.39197,0.00072
3838.35138,0.00066
3836.31079,0.00061
3834.27020,0.00064
3832.22961,0.00063
3830.18902,0.00045
3828.14842,0.00038
3826.10783,0.00049
3824.06724,0.00055
3822.02665,0.00076
3819.98606,0.00110
3817.94547,0.00117
3815.90488,0.00106
3813.86429,0.00088
3811.82370,0.00069
3809.78311,0.00058
3807.74252,0.00058
3805.70193,0.00071
3803.66133,0.00089
3801.62074,0.00096
3799.58015,0.00074
3797.53956,0.00054
3795.49897,0.00055
3793.45838,0.00065
3791.41779,0.00083
3789.37720,0.00101
3787.33661,0.00101
3785.29602,0.00085
3783.25543,0.00071
3781.21484,0.00073
3779.17424,0.00079
3777.13365,0.00070
3775.09306,0.00059
3773.05247,0.00060
3771.01188,0.00063
3768.97129,0.00061
3766.93070,0.00059
3764.89011,0.00061
3762.84952,0.00068
3760.80893,0.00082
3758.76834,0.00085
3756.72775,0.00057
3754.68715,0.00025
3752.64656,0.00036
3750.60597,0.00086
3748.56538,0.00105
3746.52479,0.00103
3744.48420,0.00105
3742.44361,0.00078
3740.40302,0.00060
3738.36243,0.00100
3736.32184,0.00169
3734.28125,0.00176
3732.24066,0.00116
3730.20006,0.00068
3728.15947,0.00046
3726.11888,0.00040
3724.07829,0.00045
3722.03770,0.00056
3719.99711,0.00069
3717.95652,0.00082
3715.91593,0.00093
3713.87534,0.00100
3711.83475,0.00114
3709.79416,0.00124
3707.75357,0.00107
3705.71297,0.00079
3703.67238,0.00063
3701.63179,0.00075
3699.59120,0.00105
3697.55061,0.00123
3695.51002,0.00125
3693.46943,0.00125
3691.42884,0.00128
3689.38825,0.00153
3687.34766,0.00169
3685.30707,0.00151
3683.26647,0.00134
3681.22588,0.00125
3679.18529,0.00104
3677.14470,0.00079
3675.10411,0.00090
3673.06352,0.00117
3671.02293,0.00109
3668.98234,0.00076
3666.94175,0.00055
3664.90116,0.00050
3662.86057,0.00058
3660.81998,0.00060
3658.77938,0.00045
3656.73879,0.00028
3654.69820,0.00029
3652.65761,0.00058
3650.61702,0.00107
3648.57643,0.00141
3646.53584,0.00125
3644.49525,0.00094
3642.45466,0.00073
3640.41407,0.00063
3638.37348,0.00055
3636.33289,0.00052
3634.29229,0.00052
3632.25170,0.00048
3630.21111,0.00056
3628.17052,0.00081
3626.12993,0.00088
3624.08934,0.00075
3622.04875,0.00071
3620.00816,0.00087
3617.96757,0.00097
3615.92698,0.00091
3613.88639,0.00080
3611.84580,0.00054
3609.80520,0.00034
3607.76461,0.00052
3605.72402,0.00077
3603.68343,0.00085
3601.64284,0.00083
3599.60225,0.00068
3597.56166,0.00055
3595.52107,0.00066
3593.48048,0.00077
3591.43989,0.00078
3589.39930,0.00090
3587.35871,0.00091
3585.31811,0.00058
3583.27752,0.00033
3581.23693,0.00042
3579.19634,0.00059
3577.15575,0.00058
3575.11516,0.00052
3573.07457,0.00057
3571.03398,0.00062
3568.99339,0.00069
3566.95280,0.00082
3564.91221,0.00085
3562.87162,0.00072
3560.83102,0.00057
3558.79043,0.00059
3556.74984,0.00067
3554.70925,0.00069
3552.66866,0.00075
3550.62807,0.00071
3548.58748,0.00062
3546.54689,0.00073
3544.50630,0.00084
3542.46571,0.00080
3540.42512,0.00074
3538.38452,0.00066
3536.34393,0.00057
3534.30334,0.00057
3532.26275,0.00066
3530.22216,0.00071
3528.18157,0.00070
3526.14098,0.00081
3524.10039,0.00093
3522.05980,0.00086
3520.01921,0.00076
3517.97862,0.00065
3515.93803,0.00050
3513.89743,0.00040
3511.85684,0.00042
3509.81625,0.00050
3507.77566,0.00057
3505.73507,0.00064
3503.69448,0.00084
3501.65389,0.00103
3499.61330,0.00103
3497.57271,0.00100
3495.53212,0.00093
3493.49153,0.00075
3491.45094,0.00067
3489.41034,0.00070
3487.36975,0.00069
3485.32916,0.00058
3483.28857,0.00042
3481.24798,0.00049
3479.20739,0.00073
3477.16680,0.00077
3475.12621,0.00066
3473.08562,0.00064
3471.04503,0.00065
3469.00444,0.00064
3466.96385,0.00073
3464.92325,0.00098
3462.88266,0.00105
3460.84207,0.00092
3458.80148,0.00087
3456.76089,0.00074
3454.72030,0.00061
3452.67971,0.00077
3450.63912,0.00091
3448.59853,0.00088
3446.55794,0.00087
3444.51735,0.00088
3442.47676,0.00083
3440.43616,0.00072
3438.39557,0.00060
3436.35498,0.00061
3434.31439,0.00067
3432.27380,0.00063
3430.23321,0.00056
3428.19262,0.00057
3426.15203,0.00054
3424.11144,0.00051
3422.07085,0.00063
3420.03026,0.00080
3417.98967,0.00083
3415.94907,0.00073
3413.90848,0.00066
3411.86789,0.00071
3409.82730,0.00075
3407.78671,0.00075
3405.74612,0.00079
3403.70553,0.00092
3401.66494,0.00105
3399.62435,0.00108
3397.58376,0.00110
3395.54317,0.00122
3393.50257,0.00125
3391.46198,0.00112
3389.42139,0.00092
3387.38080,0.00074
3385.34021,0.00066
3383.29962,0.00077
3381.25903,0.00098
3379.21844,0.00103
3377.17785,0.00090
3375.13726,0.00094
3373.09667,0.00108
3371.05608,0.00098
3369.01548,0.00080
3366.97489,0.00081
3364.93430,0.00098
3362.89371,0.00122
3360.85312,0.00132
3358.81253,0.00116
3356.77194,0.00098
3354.73135,0.00098
3352.69076,0.00098
3350.65017,0.00093
3348.60958,0.00092
3346.56899,0.00096
3344.52839,0.00098
3342.48780,0.00099
3340.44721,0.00092
3338.40662,0.00072
3336.36603,0.00059
3334.32544,0.00060
3332.28485,0.00074
3330.24426,0.00098
3328.20367,0.00113
3326.16308,0.00103
3324.12249,0.00073
3322.08190,0.00055
3320.04130,0.00060
3318.00071,0.00070
3315.96012,0.00073
3313.91953,0.00071
3311.87894,0.00070
3309.83835,0.00073
3307.79776,0.00079
3305.75717,0.00091
3303.71658,0.00102
3301.67599,0.00101
3299.63540,0.00107
3297.59481,0.00124
3295.55421,0.00128
3293.51362,0.00113
3291.47303,0.00099
3289.43244,0.00106
3287.39185,0.00125
3285.35126,0.00130
3283.31067,0.00119
3281.27008,0.00106
3279.22949,0.00095
3277.18890,0.00089
3275.14831,0.00095
3273.10772,0.00108
3271.06712,0.00115
3269.02653,0.00107
3266.98594,0.00100
3264.94535,0.00103
3262.90476,0.00095
3260.86417,0.00071
3258.82358,0.00051
3256.78299,0.00043
3254.74240,0.00047
3252.70181,0.00056
3250.66122,0.00064
3248.62062,0.00075
3246.58003,0.00089
3244.53944,0.00101
3242.49885,0.00097
3240.45826,0.00081
3238.41767,0.00079
3236.37708,0.00093
3234.33649,0.00097
3232.29590,0.00083
3230.25531,0.00073
3228.21472,0.00071
3226.17413,0.00062
3224.13353,0.00055
3222.09294,0.00064
3220.05235,0.00082
3218.01176,0.00085
3215.97117,0.00073
3213.93058,0.00067
3211.88999,0.00074
3209.84940,0.00083
3207.80881,0.00083
3205.76822,0.00079
3203.72763,0.00080
3201.68704,0.00082
3199.64644,0.00084
3197.60585,0.00079
3195.56526,0.00074
3193.52467,0.00083
3191.48408,0.00097
3189.44349,0.00107
3187.40290,0.00101
3185.36231,0.00080
3183.32172,0.00073
3181.28113,0.00079
3179.24054,0.00082
3177.19995,0.00089
3175.15935,0.00098
3173.11876,0.00102
3171.07817,0.00110
3169.03758,0.00123
3166.99699,0.00124
3164.95640,0.00112
3162.91581,0.00098
3160.87522,0.00089
3158.83463,0.00085
3156.79404,0.00082
3154.75345,0.00085
3152.71286,0.00097
3150.67226,0.00105
3148.63167,0.00103
3146.59108,0.00098
3144.55049,0.00101
3142.50990,0.00107
3140.46931,0.00109
3138.42872,0.00107
3136.38813,0.00099
3134.34754,0.00097
3132.30695,0.00109
3130.26636,0.00123
3128.22577,0.00126
3126.18517,0.00120
3124.14458,0.00112
3122.10399,0.00108
3120.06340,0.00107
3118.02281,0.00105
3115.98222,0.00102
3113.94163,0.00099
3111.90104,0.00100
3109.86045,0.00112
3107.81986,0.00124
3105.77927,0.00133
3103.73868,0.00139
3101.69808,0.00145
3099.65749,0.00155
3097.61690,0.00163
3095.57631,0.00174
3093.53572,0.00189
3091.49513,0.00189
3089.45454,0.00176
3087.41395,0.00179
3085.37336,0.00190
3083.33277,0.00184
3081.29218,0.00179
3079.25158,0.00197
3077.21099,0.00219
3075.17040,0.00225
3073.12981,0.00226
3071.08922,0.00238
3069.04863,0.00253
3067.00804,0.00262
3064.96745,0.00271
3062.92686,0.00283
3060.88627,0.00285
3058.84568,0.00292
3056.80509,0.00313
3054.76449,0.00322
3052.72390,0.00328
3050.68331,0.00344
3048.64272,0.00359
3046.60213,0.00366
3044.56154,0.00383
3042.52095,0.00414
3040.48036,0.00447
3038.43977,0.00483
3036.39918,0.00536
3034.35859,0.00623
3032.31800,0.00736
3030.27740,0.00878
3028.23681,0.01068
3026.19622,0.01309
3024.15563,0.01588
3022.11504,0.01864
3020.07445,0.02026
3018.03386,0.01955
3015.99327,0.01655
3013.95268,0.01253
3011.91209,0.00885
3009.87150,0.00611
3007.83091,0.00441
3005.79031,0.00351
3003.74972,0.00302
3001.70913,0.00264
2999.66854,0.00227
2997.62795,0.00192
2995.58736,0.00167
2993.54677,0.00157
2991.50618,0.00155
2989.46559,0.00150
2987.42500,0.00150
2985.38441,0.00158
2983.34382,0.00156
2981.30322,0.00157
2979.26263,0.00173
2977.22204,0.00181
2975.18145,0.00179
2973.14086,0.00196
2971.10027,0.00227
2969.05968,0.00246
2967.01909,0.00253
2964.97850,0.00266
2962.93791,0.00285
2960.89732,0.00292
2958.85673,0.00282
2956.81613,0.00269
2954.77554,0.00252
2952.73495,0.00232
2950.69436,0.00220
2948.65377,0.00223
2946.61318,0.00225
2944.57259,0.00220
2942.53200,0.00223
2940.49141,0.00246
2938.45082,0.00270
2936.41023,0.00283
2934.36963,0.00292
2932.32904,0.00294
2930.28845,0.00297
2928.24786,0.00306
2926.20727,0.00295
2924.16668,0.00263
2922.12609,0.00241
2920.08550,0.00235
2918.04491,0.00230
2916.00432,0.00220
2913.96373,0.00214
2911.92314,0.00216
2909.88254,0.00214
2907.84195,0.00204
2905.80136,0.00187
2903.76077,0.00171
2901.72018,0.00164
2899.67959,0.00166
2897.63900,0.00167
2895.59841,0.00162
2893.55782,0.00157
2891.51723,0.00152
2889.47664,0.00147
2887.43605,0.00148
2885.39545,0.00148
2883.35486,0.00139
2881.31427,0.00140
2879.27368,0.00159
2877.23309,0.00181
2875.19250,0.00183
2873.15191,0.00171
2871.11132,0.00161
2869.07073,0.00159
2867.03014,0.00171
2864.98955,0.00181
2862.94896,0.00182
2860.90836,0.00184
2858.86777,0.00193
2856.82718,0.00198
2854.78659,0.00186
2852.74600,0.00165
2850.70541,0.00153
2848.66482,0.00145
2846.62423,0.00132
2844.58364,0.00124
2842.54305,0.00126
2840.50246,0.00120
2838.46187,0.00102
2836.42127,0.00083
2834.38068,0.00072
2832.34009,0.00070
2830.29950,0.00067
2828.25891,0.00062
2826.21832,0.00063
2824.17773,0.00068
2822.13714,0.00075
2820.09655,0.00080
2818.05596,0.00079
2816.01537,0.00080
2813.97478,0.00083
2811.93418,0.00082
2809.89359,0.00075
2807.85300,0.00061
2805.81241,0.00053
2803.77182,0.00053
2801.73123,0.00056
2799.69064,0.00064
2797.65005,0.00074
2795.60946,0.00080
2793.56887,0.00075
2791.52828,0.00068
2789.48768,0.00073
2787.44709,0.00077
2785.40650,0.00068
2783.36591,0.00061
2781.32532,0.00060
2779.28473,0.00061
2777.24414,0.00064
2775.20355,0.00067
2773.16296,0.00072
2771.12237,0.00070
2769.08178,0.00053
2767.04119,0.00041
2765.00059,0.00049
2762.96000,0.00059
2760.91941,0.00061
2758.87882,0.00057
2756.83823,0.00058
2754.79764,0.00068
2752.75705,0.00077
2750.71646,0.00075
2748.67587,0.00068
2746.63528,0.00065
2744.59469,0.00065
2742.55410,0.00069
2740.51350,0.00071
2738.47291,0.00071
2736.43232,0.00076
2734.39173,0.00085
2732.35114,0.00080
2730.31055,0.00066
2728.26996,0.00061
2726.22937,0.00068
2724.18878,0.00075
2722.14819,0.00072
2720.10760,0.00062
2718.06701,0.00059
2716.02641,0.00064
2713.98582,0.00071
2711.94523,0.00072
2709.90464,0.00066
2707.86405,0.00066
2705.82346,0.00077
2703.78287,0.00081
2701.74228,0.00072
2699.70169,0.00065
2697.66110,0.00063
2695.62051,0.00064
2693.57992,0.00071
2691.53932,0.00076
2689.49873,0.00080
2687.45814,0.00083
2685.41755,0.00081
2683.37696,0.00079
2681.33637,0.00078
2679.29578,0.00073
2677.25519,0.00064
2675.21460,0.00058
2673.17401,0.00059
2671.13342,0.00067
2669.09283,0.00071
2667.05223,0.00065
2665.01164,0.00067
2662.97105,0.00081
2660.93046,0.00086
2658.88987,0.00076
2656.84928,0.00069
2654.80869,0.00070
2652.76810,0.00073
2650.72751,0.00071
2648.68692,0.00063
2646.64633,0.00052
2644.60573,0.00044
2642.56514,0.00043
2640.52455,0.00049
2638.48396,0.00053
2636.44337,0.00047
2634.40278,0.00043
2632.36219,0.00047
2630.32160,0.00043
2628.28101,0.00036
2626.24042,0.00042
2624.19983,0.00048
2622.15924,0.00054
2620.11864,0.00066
2618.07805,0.00066
2616.03746,0.00056
2613.99687,0.00046
2611.95628,0.00045
2609.91569,0.00054
2607.87510,0.00059
2605.83451,0.00057
2603.79392,0.00055
2601.75333,0.00056
2599.71274,0.00062
2597.67215,0.00066
2595.63155,0.00062
2593.59096,0.00053
2591.55037,0.00037
2589.50978,0.00021
2587.46919,0.00027
2585.42860,0.00047
2583.38801,0.00053
2581.34742,0.00049
2579.30683,0.00053
2577.26624,0.00059
2575.22565,0.00061
2573.18506,0.00061
2571.14446,0.00046
2569.10387,0.00027
2567.06328,0.00024
2565.02269,0.00030
2562.98210,0.00034
2560.94151,0.00040
2558.90092,0.00045
2556.86033,0.00045
2554.81974,0.00044
2552.77915,0.00047
2550.73856,0.00054
2548.69797,0.00069
2546.65737,0.00079
2544.61678,0.00069
2542.57619,0.00058
2540.53560,0.00055
2538.49501,0.00045
2536.45442,0.00031
2534.41383,0.00038
2532.37324,0.00055
2530.33265,0.00062
2528.29206,0.00057
2526.25147,0.00051
2524.21088,0.00048
2522.17028,0.00044
2520.12969,0.00042
2518.08910,0.00047
2516.04851,0.00061
2514.00792,0.00068
2511.96733,0.00051
2509.92674,0.00030
2507.88615,0.00035
2505.84556,0.00055
2503.80497,0.00057
2501.76438,0.00047
2499.72378,0.00044
2497.68319,0.00043
2495.64260,0.00039
2493.60201,0.00037
2491.56142,0.00045
2489.52083,0.00063
2487.48024,0.00084
2485.43965,0.00088
2483.39906,0.00074
2481.35847,0.00058
2479.31788,0.00042
2477.27729,0.00037
2475.23669,0.00049
2473.19610,0.00075
2471.15551,0.00086
2469.11492,0.00068
2467.07433,0.00050
2465.03374,0.00047
2462.99315,0.00047
2460.95256,0.00056
2458.91197,0.00081
2456.87138,0.00098
2454.83079,0.00093
2452.79020,0.00088
2450.74960,0.00095
2448.70901,0.00109
2446.66842,0.00118
2444.62783,0.00115
2442.58724,0.00105
2440.54665,0.00102
2438.50606,0.00098
2436.46547,0.00085
2434.42488,0.00081
2432.38429,0.00096
2430.34370,0.00105
2428.30311,0.00100
2426.26251,0.00093
2424.22192,0.00097
2422.18133,0.00107
2420.14074,0.00109
2418.10015,0.00106
2416.05956,0.00117
2414.01897,0.00146
2411.97838,0.00177
2409.93779,0.00197
2407.89720,0.00233
2405.85661,0.00294
2403.81602,0.00359
2401.77542,0.00410
2399.73483,0.00426
2397.69424,0.00392
2395.65365,0.00331
2393.61306,0.00264
2391.57247,0.00193
2389.53188,0.00145
2387.49129,0.00126
2385.45070,0.00111
2383.41011,0.00108
2381.36952,0.00117
2379.32893,0.00113
2377.28833,0.00101
2375.24774,0.00089
2373.20715,0.00077
2371.16656,0.00067
2369.12597,0.00059
2367.08538,0.00031
2365.04479,0.00005
2363.00420,0.00033
2360.96361,0.00081
2358.92302,0.00075
2356.88243,0.00037
2354.84183,0.00036
2352.80124,0.00062
2350.76065,0.00077
2348.72006,0.00084
2346.67947,0.00088
2344.63888,0.00078
2342.59829,0.00064
2340.55770,0.00060
2338.51711,0.00062
2336.47652,0.00076
2334.43593,0.00099
2332.39534,0.00109
2330.35474,0.00098
2328.31415,0.00076
2326.27356,0.00073
2324.23297,0.00096
2322.19238,0.00120
2320.15179,0.00121
2318.11120,0.00097
2316.07061,0.00075
2314.03002,0.00069
2311.98943,0.00063
2309.94884,0.00053
2307.90825,0.00049
2305.86765,0.00060
2303.82706,0.00077
2301.78647,0.00080
2299.74588,0.00074
2297.70529,0.00070
2295.66470,0.00069
2293.62411,0.00077
2291.58352,0.00075
2289.54293,0.00054
2287.50234,0.00045
2285.46175,0.00055
2283.42116,0.00065
2281.38056,0.00068
2279.33997,0.00061
2277.29938,0.00038
2275.25879,0.00016
2273.21820,0.00011
2271.17761,0.00023
2269.13702,0.00041
2267.09643,0.00025
2265.05584,-0.00015
2263.01525,-0.00014
2260.97466,0.00021
2258.93407,0.00029
2256.89347,0.00020
2254.85288,0.00030
2252.81229,0.00053
2250.77170,0.00076
2248.73111,0.00084
2246.69052,0.00056
2244.64993,0.00010
2242.60934,0.00010
2240.56875,0.00038
2238.52816,0.00029
2236.48757,0.00006
2234.44698,0.00008
2232.40638,0.00022
2230.36579,0.00038
2228.32520,0.00047
2226.28461,0.00052
2224.24402,0.00052
2222.20343,0.00057
2220.16284,0.00061
2218.12225,0.00046
2216.08166,0.00023
2214.04107,0.00011
2212.00048,0.00003
2209.95988,0.00009
2207.91929,0.00044
2205.87870,0.00092
2203.83811,0.00103
2201.79752,0.00046
2199.75693,-0.00024
2197.71634,-0.00048
2195.67575,-0.00031
2193.63516,0.00012
2191.59457,0.00063
2189.55398,0.00078
2187.51339,0.00042
2185.47279,0.00012
2183.43220,0.00038
2181.39161,0.00106
2179.35102,0.00139
2177.31043,0.00091
2175.26984,-0.00002
2173.22925,-0.00066
2171.18866,-0.00093
2169.14807,-0.00126
2167.10748,-0.00173
2165.06689,-0.00227
2163.02630,-0.00204
2160.98570,-0.00089
2158.94511,0.00005
2156.90452,0.00044
2154.86393,0.00037
2152.82334,0.00013
2150.78275,-0.00025
2148.74216,-0.00055
2146.70157,-0.00049
2144.66098,-0.00032
2142.62039,-0.00026
2140.57980,-0.00024
2138.53921,0.00003
2136.49861,0.00056
2134.45802,0.00087
2132.41743,0.00087
2130.37684,0.00075
2128.33625,0.00055
2126.29566,0.00041
2124.25507,0.00031
2122.21448,0.00029
2120.17389,0.00034
2118.13330,0.00033
2116.09271,0.00033
2114.05212,0.00027
2112.01152,0.00007
2109.97093,-0.00001
2107.93034,0.00004
2105.88975,0.00009
2103.84916,0.00024
2101.80857,0.00038
2099.76798,0.00045
2097.72739,0.00054
2095.68680,0.00053
2093.64621,0.00043
2091.60562,0.00030
2089.56503,0.00010
2087.52443,0.00013
2085.48384,0.00044
2083.44325,0.00049
2081.40266,0.00031
2079.36207,0.00028
2077.32148,0.00018
2075.28089,0.00027
2073.24030,0.00069
2071.19971,0.00072
2069.15912,0.00015
2067.11853,-0.00013
2065.07793,0.00046
2063.03734,0.00120
2060.99675,0.00123
2058.95616,0.00050
2056.91557,-0.00034
2054.87498,-0.00053
2052.83439,-0.00013
2050.79380,0.00017
2048.75321,0.00017
2046.71262,0.00063
2044.67203,0.00153
2042.63144,0.00161
2040.59084,0.00104
2038.55025,0.00077
2036.50966,0.00075
2034.46907,0.00072
2032.42848,0.00053
2030.38789,0.00067
2028.34730,0.00139
2026.30671,0.00201
2024.26612,0.00217
2022.22553,0.00174
2020.18494,0.00068
2018.14435,-0.00013
2016.10375,-0.00031
2014.06316,-0.00024
2012.02257,0.00000
2009.98198,0.00017
2007.94139,0.00004
2005.90080,-0.00029
2003.86021,-0.00050
2001.81962,-0.00024
1999.77903,0.00006
1997.73844,-0.00009
1995.69785,-0.00023
1993.65726,0.00002
1991.61666,0.00071
1989.57607,0.00125
1987.53548,0.00087
1985.49489,-0.00015
1983.45430,-0.00114
1981.41371,-0.00126
1979.37312,-0.00029
1977.33253,0.00073
1975.29194,0.00107
1973.25135,0.00074
1971.21076,0.00027
1969.17017,0.00009
1967.12957,-0.00012
1965.08898,-0.00037
1963.04839,-0.00045
1961.00780,-0.00034
1958.96721,0.00008
1956.92662,0.00044
1954.88603,0.00032
1952.84544,0.00005
1950.80485,0.00007
1948.76426,0.00029
1946.72367,0.00061
1944.68308,0.00112
1942.64248,0.00150
1940.60189,0.00132
1938.56130,0.00077
1936.52071,0.00026
1934.48012,0.00003
1932.43953,0.00011
1930.39894,0.00025
1928.35835,0.00019
1926.31776,-0.00002
1924.27717,-0.00009
1922.23658,0.00023
1920.19598,0.00079
1918.15539,0.00101
1916.11480,0.00079
1914.07421,0.00049
1912.03362,0.00030
1909.99303,0.00030
1907.95244,0.00031
1905.91185,0.00023
1903.87126,0.00027
1901.83067,0.00035
1899.79008,0.00041
1897.74949,0.00047
1895.70889,0.00047
1893.66830,0.00040
1891.62771,0.00049
1889.58712,0.00076
1887.54653,0.00077
1885.50594,0.00054
1883.46535,0.00050
1881.42476,0.00062
1879.38417,0.00065
1877.34358,0.00054
1875.30299,0.00040
1873.26240,0.00033
1871.22180,0.00042
1869.18121,0.00069
1867.14062,0.00081
1865.10003,0.00072
1863.05944,0.00075
1861.01885,0.00090
1858.97826,0.00090
1856.93767,0.00064
1854.89708,0.00039
1852.85649,0.00030
1850.81590,0.00035
1848.77531,0.00047
1846.73471,0.00062
1844.69412,0.00066
1842.65353,0.00056
1840.61294,0.00053
1838.57235,0.00061
1836.53176,0.00067
1834.49117,0.00067
1832.45058,0.00082
1830.40999,0.00106
1828.36940,0.00106
1826.32881,0.00089
1824.28822,0.00072
1822.24762,0.00065
1820.20703,0.00066
1818.16644,0.00065
1816.12585,0.00073
1814.08526,0.00090
1812.04467,0.00097
1810.00408,0.00089
1807.96349,0.00080
1805.92290,0.00085
1803.88231,0.00097
1801.84172,0.00105
1799.80113,0.00109
1797.76053,0.00107
1795.71994,0.00101
1793.67935,0.00097
1791.63876,0.00090
1789.59817,0.00075
1787.55758,0.00063
1785.51699,0.00057
1783.47640,0.00060
1781.43581,0.00073
1779.39522,0.00088
1777.35463,0.00102
1775.31404,0.00118
1773.27344,0.00133
1771.23285,0.00128
1769.19226,0.00104
1767.15167,0.00084
1765.11108,0.00077
1763.07049,0.00088
1761.02990,0.00106
1758.98931,0.00112
1756.94872,0.00113
1754.90813,0.00122
1752.86754,0.00151
1750.82694,0.00184
1748.78635,0.00201
1746.74576,0.00207
1744.70517,0.00213
1742.66458,0.00226
1740.62399,0.00252
1738.58340,0.00294
1736.54281,0.00349
1734.50222,0.00415
1732.46163,0.00445
1730.42104,0.00436
1728.38045,0.00430
1726.33985,0.00430
1724.29926,0.00427
1722.25867,0.00418
1720.21808,0.00417
1718.17749,0.00421
1716.13690,0.00398
1714.09631,0.00347
1712.05572,0.00306
1710.01513,0.00282
1707.97454,0.00265
1705.93395,0.00254
1703.89336,0.00250
1701.85276,0.00252
1699.81217,0.00235
1697.77158,0.00196
1695.73099,0.00168
1693.69040,0.00153
1691.64981,0.00144
1689.60922,0.00142
1687.56863,0.00147
1685.52804,0.00159
1683.48745,0.00165
1681.44686,0.00154
1679.40627,0.00139
1677.36567,0.00126
1675.32508,0.00122
1673.28449,0.00124
1671.24390,0.00130
1669.20331,0.00143
1667.16272,0.00142
1665.12213,0.00134
1663.08154,0.00139
1661.04095,0.00137
1659.00036,0.00127
1656.95977,0.00131
1654.91918,0.00156
1652.87858,0.00173
1650.83799,0.00151
1648.79740,0.00145
1646.75681,0.00158
1644.71622,0.00149
1642.67563,0.00133
1640.63504,0.00129
1638.59445,0.00140
1636.55386,0.00161
1634.51327,0.00162
1632.47268,0.00143
1630.43209,0.00129
1628.39149,0.00127
1626.35090,0.00137
1624.31031,0.00143
1622.26972,0.00139
1620.22913,0.00139
1618.18854,0.00150
1616.14795,0.00155
1614.10736,0.00147
1612.06677,0.00146
1610.02618,0.00161
1607.98559,0.00177
1605.94499,0.00184
1603.90440,0.00190
1601.86381,0.00195
1599.82322,0.00189
1597.78263,0.00179
1595.74204,0.00175
1593.70145,0.00168
1591.66086,0.00162
1589.62027,0.00160
1587.57968,0.00159
1585.53909,0.00162
1583.49850,0.00166
1581.45790,0.00167
1579.41731,0.00172
1577.37672,0.00187
1575.33613,0.00192
1573.29554,0.00179
1571.25495,0.00166
1569.21436,0.00157
1567.17377,0.00156
1565.13318,0.00165
1563.09259,0.00175
1561.05200,0.00195
1559.01141,0.00231
1556.97081,0.00231
1554.93022,0.00226
1552.88963,0.00240
1550.84904,0.00260
1548.80845,0.00278
1546.76786,0.00296
1544.72727,0.00327
1542.68668,0.00375
1540.64609,0.00414
1538.60550,0.00420
1536.56491,0.00428
1534.52432,0.00457
1532.48372,0.00482
1530.44313,0.00496
1528.40254,0.00519
1526.36195,0.00540
1524.32136,0.00551
1522.28077,0.00569
1520.24018,0.00578
1518.19959,0.00561
1516.15900,0.00534
1514.11841,0.00510
1512.07782,0.00498
1510.03723,0.00496
1507.99663,0.00484
1505.95604,0.00431
1503.91545,0.00373
1501.87486,0.00340
1499.83427,0.00320
1497.79368,0.00303
1495.75309,0.00290
1493.71250,0.00288
1491.67191,0.00294
1489.63132,0.00300
1487.59073,0.00297
1485.55014,0.00299
1483.50954,0.00321
1481.46895,0.00354
1479.42836,0.00382
1477.38777,0.00402
1475.34718,0.00414
1473.30659,0.00405
1471.26600,0.00375
1469.22541,0.00353
1467.18482,0.00346
1465.14423,0.00336
1463.10364,0.00319
1461.06304,0.00312
1459.02245,0.00318
1456.98186,0.00324
1454.94127,0.00329
1452.90068,0.00340
1450.86009,0.00349
1448.81950,0.00350
1446.77891,0.00348
1444.73832,0.00351
1442.69773,0.00369
1440.65714,0.00399
1438.61655,0.00429
1436.57595,0.00455
1434.53536,0.00468
1432.49477,0.00479
1430.45418,0.00501
1428.41359,0.00528
1426.37300,0.00551
1424.33241,0.00568
1422.29182,0.00576
1420.25123,0.00575
1418.21064,0.00551
1416.17005,0.00502
1414.12946,0.00453
1412.08886,0.00413
1410.04827,0.00378
1408.00768,0.00348
1405.96709,0.00327
1403.92650,0.00304
1401.88591,0.00280
1399.84532,0.00272
1397.80473,0.00272
1395.76414,0.00265
1393.72355,0.00251
1391.68296,0.00245
1389.64237,0.00249
1387.60177,0.00256
1385.56118,0.00261
1383.52059,0.00270
1381.48000,0.00282
1379.43941,0.00287
1377.39882,0.00288
1375.35823,0.00285
1373.31764,0.00274
1371.27705,0.00260
1369.23646,0.00259
1367.19587,0.00268
1365.15528,0.00280
1363.11468,0.00293
1361.07409,0.00290
1359.03350,0.00272
1356.99291,0.00255
1354.95232,0.00250
1352.91173,0.00255
1350.87114,0.00259
1348.83055,0.00265
1346.78996,0.00274
1344.74937,0.00280
1342.70878,0.00293
1340.66819,0.00320
1338.62759,0.00344
1336.58700,0.00344
1334.54641,0.00328
1332.50582,0.00313
1330.46523,0.00305
1328.42464,0.00300
1326.38405,0.00295
1324.34346,0.00287
1322.30287,0.00283
1320.26228,0.00288
1318.22169,0.00299
1316.18109,0.00313
1314.14050,0.00329
1312.09991,0.00342
1310.05932,0.00351
1308.01873,0.00361
1305.97814,0.00369
1303.93755,0.00367
1301.89696,0.00368
1299.85637,0.00372
1297.81578,0.00367
1295.77519,0.00361
1293.73460,0.00363
1291.69400,0.00369
1289.65341,0.00374
1287.61282,0.00380
1285.57223,0.00390
1283.53164,0.00407
1281.49105,0.00428
1279.45046,0.00447
1277.40987,0.00465
1275.36928,0.00481
1273.32869,0.00500
1271.28810,0.00520
1269.24751,0.00541
1267.20691,0.00565
1265.16632,0.00596
1263.12573,0.00630
1261.08514,0.00665
1259.04455,0.00699
1257.00396,0.00735
1254.96337,0.00779
1252.92278,0.00834
1250.88219,0.00891
1248.84160,0.00943
1246.80101,0.00992
1244.76042,0.01044
1242.71982,0.01110
1240.67923,0.01203
1238.63864,0.01326
1236.59805,0.01479
1234.55746,0.01679
1232.51687,0.01950
1230.47628,0.02335
1228.43569,0.02919
1226.39510,0.03857
1224.35451,0.05426
1222.31392,0.08108
1220.27333,0.12585
1218.23273,0.19242
1216.19214,0.26625
1214.15155,0.30149
1212.11096,0.26427
1210.07037,0.18848
1208.02978,0.12177
1205.98919,0.07853
1203.94860,0.05350
1201.90801,0.03905
1199.86742,0.03037
1197.82683,0.02494
1195.78624,0.02133
1193.74564,0.01872
1191.70505,0.01685
1189.66446,0.01557
1187.62387,0.01461
1185.58328,0.01383
1183.54269,0.01323
1181.50210,0.01269
1179.46151,0.01217
1177.42092,0.01171
1175.38033,0.01127
1173.33974,0.01083
1171.29914,0.01036
1169.25855,0.00988
1167.21796,0.00945
1165.17737,0.00917
1163.13678,0.00902
1161.09619,0.00883
1159.05560,0.00856
1157.01501,0.00831
1154.97442,0.00811
1152.93383,0.00792
1150.89324,0.00772
1148.85265,0.00756
1146.81205,0.00751
1144.77146,0.00744
1142.73087,0.00738
1140.69028,0.00732
1138.64969,0.00725
1136.60910,0.00732
1134.56851,0.00757
1132.52792,0.00783
1130.48733,0.00798
1128.44674,0.00802
1126.40615,0.00799
1124.36556,0.00786
1122.32496,0.00770
1120.28437,0.00766
1118.24378,0.00773
1116.20319,0.00777
1114.16260,0.00770
1112.12201,0.00761
1110.08142,0.00763
1108.04083,0.00773
1106.00024,0.00781
1103.95965,0.00790
1101.91906,0.00802
1099.87847,0.00805
1097.83787,0.00800
1095.79728,0.00797
1093.75669,0.00792
1091.71610,0.00780
1089.67551,0.00770
1087.63492,0.00764
1085.59433,0.00768
1083.55374,0.00784
1081.51315,0.00796
1079.47256,0.00798
1077.43197,0.00801
1075.39138,0.00813
1073.35078,0.00829
1071.31019,0.00835
1069.26960,0.00826
1067.22901,0.00817
1065.18842,0.00816
1063.14783,0.00812
1061.10724,0.00804
1059.06665,0.00801
1057.02606,0.00803
1054.98547,0.00805
1052.94488,0.00807
1050.90429,0.00812
1048.86369,0.00815
1046.82310,0.00816
1044.78251,0.00825
1042.74192,0.00850
1040.70133,0.00882
1038.66074,0.00911
1036.62015,0.00940
1034.57956,0.00957
1032.53897,0.00961
1030.49838,0.00957
1028.45779,0.00947
1026.41719,0.00937
1024.37660,0.00930
1022.33601,0.00922
1020.29542,0.00910
1018.25483,0.00899
1016.21424,0.00888
1014.17365,0.00873
1012.13306,0.00865
1010.09247,0.00863
1008.05188,0.00859
1006.01129,0.00845
1003.97070,0.00822
1001.93010,0.00797
999.88951,0.00788
997.84892,0.00791
995.80833,0.00793
993.76774,0.00787
991.72715,0.00777
989.68656,0.00767
987.64597,0.00766
985.60538,0.00769
983.56479,0.00775
981.52420,0.00782
979.48361,0.00780
977.44301,0.00778
975.40242,0.00779
973.36183,0.00775
971.32124,0.00766
969.28065,0.00758
967.24006,0.00758
965.19947,0.00766
963.15888,0.00773
961.11829,0.00790
959.07770,0.00821
957.03711,0.00838
954.99652,0.00840
952.95592,0.00845
950.91533,0.00856
948.87474,0.00868
946.83415,0.00880
944.79356,0.00899
942.75297,0.00938
940.71238,0.00997
938.67179,0.01075
936.63120,0.01184
934.59061,0.01326
932.55002,0.01482
930.50943,0.01618
928.46883,0.01679
926.42824,0.01647
924.38765,0.01557
922.34706,0.01461
920.30647,0.01402
918.26588,0.01440
916.22529,0.01676
914.18470,0.02141
912.14411,0.02599
910.10352,0.02725
908.06293,0.02483
906.02234,0.02087
903.98174,0.01729
901.94115,0.01488
899.90056,0.01356
897.85997,0.01292
895.81938,0.01275
893.77879,0.01283
891.73820,0.01283
889.69761,0.01269
887.65702,0.01266
885.61643,0.01272
883.57584,0.01269
881.53524,0.01263
879.49465,0.01266
877.45406,0.01276
875.41347,0.01287
873.37288,0.01297
871.33229,0.01311
869.29170,0.01337
867.25111,0.01370
865.21052,0.01396
863.16993,0.01417
861.12934,0.01444
859.08875,0.01478
857.04815,0.01521
855.00756,0.01573
852.96697,0.01624
850.92638,0.01672
848.88579,0.01704
846.84520,0.01699
844.80461,0.01666
842.76402,0.01637
840.72343,0.01623
838.68284,0.01624
836.64225,0.01641
834.60166,0.01653
832.56106,0.01643
830.52047,0.01646
828.47988,0.01694
826.43929,0.01752
824.39870,0.01782
822.35811,0.01791
820.31752,0.01814
818.27693,0.01877
816.23634,0.01961
814.19575,0.02032
812.15516,0.02091
810.11457,0.02173
808.07397,0.02293
806.03338,0.02425
803.99279,0.02542
801.95220,0.02666
799.91161,0.02824
797.87102,0.03011
795.83043,0.03227
793.78984,0.03499
791.74925,0.03855
789.70866,0.04323
787.66807,0.04948
785.62748,0.05783
783.58688,0.06914
781.54629,0.08442
779.50570,0.10444
777.46511,0.12942
775.42452,0.15918
773.38393,0.19344
771.34334,0.23200
769.30275,0.27551
767.26216,0.32604
765.22157,0.38555
763.18098,0.45515
761.14039,0.53596
759.09979,0.62896
757.05920,0.73490
755.01861,0.85446
752.97802,0.98722
750.93743,1.13182
748.89684,1.28379
746.85625,1.43210
744.81566,1.55199
742.77507,1.57561
740.73448,1.45261
738.69389,1.25146
736.65329,1.05210
734.61270,0.87996
732.57211,0.73715
730.53152,0.62030
728.49093,0.52528
726.45034,0.44842
724.40975,0.38694
722.36916,0.33795
720.32857,0.29817
718.28798,0.26610
716.24739,0.24074
714.20680,0.22014
712.16620,0.20296
710.12561,0.18887
708.08502,0.17758
706.04443,0.16833
704.00384,0.16026
701.96325,0.15309
699.92266,0.14704
697.88207,0.14210
695.84148,0.13791
693.80089,0.13448
691.76030,0.13156
689.71971,0.12882
687.67911,0.12621
685.63852,0.12417
683.59793,0.12308
681.55734,0.12324
679.51675,0.12531
677.47616,0.13127
675.43557,0.14624
673.39498,0.17817
671.35439,0.22521
669.31380,0.27017
667.27321,0.27231
665.23262,0.23098
663.19202,0.18699
661.15143,0.15325
659.11084,0.13392
657.07025,0.12406
655.02966,0.11892
652.98907,0.11607
650.94848,0.11401
648.90789,0.11215
646.86730,0.11066
644.82671,0.10963
642.78612,0.10896
640.74553,0.10841
638.70493,0.10828
636.66434,0.10876
634.62375,0.10973
632.58316,0.11115
630.54257,0.11271
628.50198,0.11373
626.46139,0.11399
624.42080,0.11396
622.38021,0.11353
620.33962,0.11274
618.29903,0.11193
616.25844,0.11146
614.21784,0.11120
612.17725,0.11087
610.13666,0.11069
608.09607,0.11099
606.05548,0.11151
604.01489,0.11193
601.97430,0.11216
599.93371,0.11213
597.89312,0.11215
595.85253,0.11231
593.81194,0.11248
591.77135,0.11288
589.73075,0.11363
587.69016,0.11442
585.64957,0.11515
583.60898,0.11576
581.56839,0.11626
579.52780,0.11694
577.48721,0.11731
575.44662,0.11747
573.40603,0.11812
571.36544,0.11883
569.32485,0.11929
567.28425,0.12002
565.24366,0.12089
563.20307,0.12148
561.16248,0.12180
559.12189,0.12238
557.08130,0.12349
555.04071,0.12428
553.00012,0.12444
550.95953,0.12464
548.91894,0.12520
546.87835,0.12595
544.83776,0.12702
542.79716,0.12832
540.75657,0.12939
538.71598,0.13016
536.67539,0.13076
534.63480,0.13128
532.59421,0.13189
530.55362,0.13251
528.51303,0.13320
526.47244,0.13431
524.43185,0.13531
522.39126,0.13575
520.35067,0.13622
518.31007,0.13719
516.26948,0.13866
514.22889,0.14028
512.18830,0.14149
510.14771,0.14221
508.10712,0.14278
506.06653,0.14384
504.02594,0.14544
501.98535,0.14671
499.94476,0.14740
497.90417,0.14807
495.86358,0.14916
493.82298,0.15061
491.78239,0.15194
489.74180,0.15279
487.70121,0.15332
485.66062,0.15382
483.62003,0.15382
481.57944,0.15332
479.53885,0.15370
477.49826,0.15574
475.45767,0.15779
473.41708,0.15848
471.37649,0.15888
469.33589,0.16020
467.29530,0.16223
465.25471,0.16359
463.21412,0.16359
461.17353,0.16385
459.13294,0.16542
457.09235,0.16705
455.05176,0.16741
453.01117,0.16702
450.97058,0.16708
448.92999,0.16792
446.88940,0.16896
444.84880,0.16952
442.80821,0.17003
440.76762,0.17153
438.72703,0.17376
436.68644,0.17621
434.64585,0.17792
432.60526,0.17863
430.56467,0.17931
428.52408,0.18019
426.48349,0.18119
424.44290,0.18270
422.40230,0.18504
420.36171,0.18747
418.32112,0.18801
416.28053,0.18795
414.23994,0.19011
412.19935,0.19328
410.15876,0.19570
408.11817,0.19743
406.07758,0.19914
404.03699,0.20126
401.99640,0.20295
399.95581,0.20268
